Filename,Azulene_DSC_Zoom_Meeting_CHM343
Instrument name,DSC2A-00468 (192.168.1.100)
Operator,Zoom Meeting Students
rundate,2/4/2025
Sample name,Azulene_DSC_Zoom_Meeting_CHM343
proceduresegments,Data Off ; Equilibrate 30.00 °C; Data On ; Ramp 20.00 °C/min to 150.00 °C
[File Parameters]
Run date,2/4/2025 6:13:46 PM
Trios version,5.1.1.46572
Original File Name,C:\ProgramData\TA Instruments\TRIOS\Data\2025_01_04_Azulene_DSC_Zoom_Meeting_CHM343.tri
Current File Name,\\Mac\Home\Desktop\DSC_CHM343\Azulene_DSC_Zoom_Meeting_CHM343.tri
[Procedure]
Procedure Name,Azulene2
Sample Name,Azulene_DSC_Zoom_Meeting_CHM343
Sample Mass,0.12 mg
Reference Sample Mass,0 mg
Pan Mass,53.61 mg
Pan Number,21
Reference Pan Mass,54 mg
Reference Pan Number,19
Pan Type,Aluminum
Comments,"Al Hermetic Sealed Pan, with ref Al pan"
Project Name,
Operator,Zoom Meeting Students
Test,Custom
Unload Max Temperature,30
Unload Min Temperature,30
Load Max Temperature,30
Load Min Temperature,30
Stop on Gas Flow Error,Yes
[Signal List]
Signal #1,Time (min)
Signal #2,Temperature (°C)
Signal #3,Heat Flow (mW)
Signal #4,Delta T (µV)
Signal #5,Delta Tzero (µV)
Signal #6,Tzero Temperature (°C)
Signal #7,Cell Purge (mL/min)
Signal #8,Heater Temp (°C)
Signal #9,Power Delivered (W)
Signal #10,Reference Junction Temperature (°C)
Signal #11,Flange Temperature (°C)
Signal #12,Heat Flow Phase (rad)
Signal #13,Total Heat Capacity (J/°C)
Signal #14,Heat Capacity (J/°C)
[Configuration]
Company Name,ASU
Instrument Name,DSC2A-00468
Instrument Type,DSC2500
Serial Number,DSC2A-00468
IP,192.168.1.100
Location of Instrument,MRRC
DisplayType,Unknown
Sample Interval ,0.1 s/pt
Selected Heat Flow,T4P
Exotherm Direction,Down
Cell Serial,DRC2-00792
Lid Type,Standard
Cooler,RCS 90
Leave Cooler on at End of Sequence,On
Gas 2,Nitrogen
Gas Selected,Channel 1
Flow Rate,50 mL/min
Secondary Purge,On
Licensed Heat Flow,Heat Flow T4P
Modulation Licensed,Yes
[Versions]
Common IDD Version,1
Cortex Version,VER 2.10.2.31
Driver,5.0.0.6
GDM Version,1.0.3.3
TouchscreenVersion,1.0.0.16145
FEP Version,1.2.1.21
FEP Bootloader,2.0.0.5
AutoSampler Version,2.1.1.26
Auto Sampler Bootloader,2.0.0.5
FCM Version,1.1.0.3
FCM Bootloader,2.0.0.5
[Experiment Logs]
Experiment Log Entry # 1,Data On set to 0
Experiment Log Entry # 3,Equilibrate Segment 30 (C) Started
Experiment Log Entry # 5,Air Cool is off.
Experiment Log Entry # 7,Data On set to 1
Experiment Log Entry # 9,Ramp Segment 20 C/min to 150 Started
[Method Log]
Method Log Entry # 1,Data Off
Method Log Entry # 2,Equilibrate 30 °C
Method Log Entry # 3,Data On
Method Log Entry # 4,(Ramp 1037) Ramp 20 °C/minute to 150 °C
Cell Serial,DRC2-00792
[T1 Calibration]
Slope,-0.008529666
Offset,9.636258
Initial Temperature,98.23
GUID,f8bfdadc-4977-4fdf-ba6d-0ba9134940c3
[TZero Calibration]
Date Applied,11/29/2022 4:06:13 PM
Description,From -89.059 °C to 396.009 °C at 20.000°C/min
Gas Type,Nitrogen
Pan Type,None
Source Files 1,C:\Users\yargerlab\Desktop\DSC Data\General\TZero_calibration_11_29_22_2nd(2).tri
Source Files 2,C:\Users\yargerlab\Desktop\DSC Data\General\TZero_calibration_11_29_22_2nd(3).tri
Delta T Offset,13.05235
Delta T Slope,-0.007271007
Delta T0 Offset,-13.69128
Delta T0 Slope,0.06063341
[Temperature Calibration]
Date Applied,11/29/2022 7:12:28 PM
Description,From 106.590 °C to 186.590 °C at 10.000°C/min
Gas Type,Nitrogen
Pan Type,Tzero Aluminum Hermetic
Source Files 1,C:\Users\yargerlab\Desktop\DSC Data\General\Indium(6).tri
Measured 1,157.391
Known 1,156.598
[Cell Constant Calibration]
Date Applied,11/29/2022 7:12:29 PM
Description,From 106.590 °C to 186.590 °C at 10.000°C/min
Gas Type,Nitrogen
Pan Type,Tzero Aluminum Hermetic
Source Files 1,C:\Users\yargerlab\Desktop\DSC Data\General\Indium(6).tri
T4P KCell,1.006051
Onset Slope,63.26126 mW/°C
[Direct Cp Calibration]
Date Applied,11/30/2022 11:04:51 AM
Description,From -79.983 °C to 298.409 °C at 10.000°C/min
Gas Type,Nitrogen
Pan Type,Tzero Aluminum Hermetic
Source Files 1,C:\Users\yargerlab\Desktop\DSC Data\General\Sapphire_Heat_Capacity_11_30_22.tri
[Rev Cp Calibration]
Date Applied,11/30/2022 1:58:51 PM
Description,From -79.996 °C to 292.812 °C at 3.000°C/min
Gas Type,Nitrogen
Pan Type,Tzero Aluminum Hermetic
Source Files 1,C:\Users\yargerlab\Desktop\DSC Data\General\Sapphire_MDSC_Calibration_11_30_22.tri
[step]
Ramp 20.00 °C/min to 150.00 °C
Time,Temperature,Heat Flow (Normalized)
min,°C,W/g
0.00,30.00,-0.425
0.00,30.00,-0.427
0.00,30.00,-0.430
0.01,30.00,-0.433
0.01,30.00,-0.436
0.01,30.00,-0.440
0.01,30.00,-0.444
0.01,30.00,-0.447
0.01,30.00,-0.450
0.01,30.01,-0.452
0.02,30.01,-0.454
0.02,30.01,-0.456
0.02,30.01,-0.459
0.02,30.01,-0.462
0.02,30.01,-0.464
0.03,30.01,-0.465
0.03,30.01,-0.467
0.03,30.01,-0.470
0.03,30.01,-0.471
0.03,30.02,-0.472
0.03,30.02,-0.474
0.03,30.02,-0.475
0.04,30.02,-0.477
0.04,30.02,-0.478
0.04,30.03,-0.479
0.04,30.03,-0.480
0.04,30.03,-0.481
0.05,30.03,-0.482
0.05,30.04,-0.483
0.05,30.04,-0.484
0.05,30.04,-0.485
0.05,30.04,-0.488
0.05,30.05,-0.491
0.05,30.05,-0.494
0.06,30.06,-0.499
0.06,30.06,-0.504
0.06,30.07,-0.512
0.06,30.07,-0.526
0.06,30.08,-0.549
0.07,30.08,-0.577
0.07,30.09,-0.604
0.07,30.09,-0.633
0.07,30.10,-0.663
0.07,30.11,-0.690
0.07,30.11,-0.722
0.08,30.12,-0.758
0.08,30.13,-0.793
0.08,30.14,-0.831
0.08,30.14,-0.871
0.08,30.15,-0.916
0.08,30.16,-0.966
0.08,30.17,-1.023
0.09,30.18,-1.074
0.09,30.19,-1.127
0.09,30.20,-1.176
0.09,30.21,-1.234
0.09,30.23,-1.295
0.09,30.24,-1.334
0.10,30.25,-1.369
0.10,30.26,-1.400
0.10,30.28,-1.430
0.10,30.29,-1.450
0.10,30.30,-1.472
0.11,30.32,-1.495
0.11,30.33,-1.514
0.11,30.35,-1.536
0.11,30.36,-1.556
0.11,30.38,-1.582
0.11,30.39,-1.596
0.12,30.41,-1.608
0.12,30.43,-1.622
0.12,30.44,-1.631
0.12,30.46,-1.633
0.12,30.48,-1.642
0.12,30.50,-1.654
0.13,30.52,-1.658
0.13,30.53,-1.658
0.13,30.55,-1.658
0.13,30.57,-1.660
0.13,30.59,-1.659
0.13,30.61,-1.660
0.14,30.63,-1.661
0.14,30.65,-1.659
0.14,30.67,-1.657
0.14,30.70,-1.655
0.14,30.72,-1.642
0.14,30.74,-1.630
0.14,30.76,-1.620
0.15,30.78,-1.612
0.15,30.81,-1.608
0.15,30.83,-1.601
0.15,30.85,-1.594
0.15,30.87,-1.587
0.16,30.90,-1.580
0.16,30.92,-1.571
0.16,30.95,-1.558
0.16,30.97,-1.541
0.16,30.99,-1.520
0.16,31.02,-1.495
0.16,31.04,-1.465
0.17,31.07,-1.429
0.17,31.09,-1.382
0.17,31.12,-1.312
0.17,31.14,-1.245
0.17,31.17,-1.180
0.18,31.19,-1.105
0.18,31.22,-1.027
0.18,31.25,-0.960
0.18,31.27,-0.891
0.18,31.30,-0.823
0.18,31.33,-0.769
0.19,31.35,-0.718
0.19,31.38,-0.664
0.19,31.40,-0.613
0.19,31.43,-0.549
0.19,31.46,-0.505
0.19,31.49,-0.455
0.19,31.51,-0.390
0.20,31.54,-0.352
0.20,31.57,-0.324
0.20,31.59,-0.290
0.20,31.62,-0.252
0.20,31.65,-0.219
0.21,31.68,-0.195
0.21,31.71,-0.151
0.21,31.73,-0.113
0.21,31.76,-0.086
0.21,31.79,-0.038
0.21,31.82,0.019
0.21,31.85,0.050
0.22,31.87,0.068
0.22,31.90,0.087
0.22,31.93,0.120
0.22,31.96,0.150
0.22,31.99,0.183
0.23,32.02,0.253
0.23,32.04,0.304
0.23,32.07,0.313
0.23,32.10,0.339
0.23,32.13,0.367
0.23,32.16,0.385
0.24,32.19,0.411
0.24,32.22,0.430
0.24,32.25,0.450
0.24,32.28,0.468
0.24,32.31,0.496
0.24,32.34,0.543
0.24,32.37,0.580
0.25,32.40,0.619
0.25,32.42,0.643
0.25,32.45,0.657
0.25,32.48,0.673
0.25,32.51,0.706
0.26,32.54,0.722
0.26,32.57,0.733
0.26,32.60,0.755
0.26,32.63,0.776
0.26,32.66,0.792
0.26,32.69,0.803
0.26,32.72,0.819
0.27,32.75,0.835
0.27,32.78,0.848
0.27,32.81,0.867
0.27,32.84,0.891
0.27,32.87,0.903
0.28,32.90,0.923
0.28,32.93,0.948
0.28,32.96,0.969
0.28,32.99,0.982
0.28,33.03,0.999
0.28,33.06,1.016
0.29,33.09,1.021
0.29,33.12,1.027
0.29,33.15,1.027
0.29,33.18,1.027
0.29,33.21,1.024
0.29,33.24,1.025
0.30,33.27,1.037
0.30,33.30,1.050
0.30,33.33,1.068
0.30,33.36,1.093
0.30,33.39,1.121
0.30,33.43,1.149
0.30,33.46,1.169
0.31,33.49,1.183
0.31,33.52,1.192
0.31,33.55,1.198
0.31,33.58,1.203
0.31,33.61,1.207
0.31,33.64,1.213
0.32,33.67,1.219
0.32,33.71,1.227
0.32,33.74,1.236
0.32,33.77,1.250
0.32,33.80,1.267
0.33,33.83,1.280
0.33,33.86,1.291
0.33,33.89,1.302
0.33,33.92,1.316
0.33,33.96,1.328
0.33,33.99,1.340
0.34,34.02,1.354
0.34,34.05,1.363
0.34,34.08,1.368
0.34,34.12,1.373
0.34,34.15,1.375
0.34,34.18,1.376
0.35,34.21,1.377
0.35,34.24,1.378
0.35,34.27,1.380
0.35,34.30,1.383
0.35,34.34,1.389
0.35,34.37,1.403
0.35,34.40,1.423
0.36,34.43,1.444
0.36,34.46,1.457
0.36,34.50,1.470
0.36,34.53,1.480
0.36,34.56,1.489
0.36,34.59,1.499
0.37,34.62,1.507
0.37,34.66,1.511
0.37,34.69,1.517
0.37,34.72,1.524
0.37,34.75,1.533
0.38,34.78,1.543
0.38,34.82,1.547
0.38,34.85,1.548
0.38,34.88,1.549
0.38,34.91,1.551
0.38,34.94,1.553
0.39,34.98,1.556
0.39,35.01,1.561
0.39,35.04,1.567
0.39,35.07,1.574
0.39,35.11,1.583
0.39,35.14,1.593
0.40,35.17,1.600
0.40,35.20,1.605
0.40,35.23,1.608
0.40,35.27,1.614
0.40,35.30,1.620
0.40,35.33,1.625
0.40,35.36,1.636
0.41,35.40,1.647
0.41,35.43,1.655
0.41,35.46,1.665
0.41,35.49,1.674
0.41,35.53,1.683
0.41,35.56,1.689
0.42,35.59,1.693
0.42,35.62,1.697
0.42,35.65,1.701
0.42,35.69,1.703
0.42,35.72,1.705
0.43,35.75,1.706
0.43,35.78,1.708
0.43,35.82,1.709
0.43,35.85,1.712
0.43,35.88,1.716
0.43,35.91,1.720
0.44,35.95,1.722
0.44,35.98,1.726
0.44,36.01,1.731
0.44,36.04,1.733
0.44,36.08,1.736
0.44,36.11,1.739
0.45,36.14,1.741
0.45,36.17,1.744
0.45,36.21,1.747
0.45,36.24,1.750
0.45,36.27,1.754
0.45,36.30,1.756
0.45,36.34,1.759
0.46,36.37,1.763
0.46,36.40,1.766
0.46,36.43,1.769
0.46,36.47,1.771
0.46,36.50,1.774
0.46,36.53,1.777
0.47,36.56,1.780
0.47,36.60,1.786
0.47,36.63,1.791
0.47,36.66,1.793
0.47,36.69,1.794
0.48,36.73,1.797
0.48,36.76,1.799
0.48,36.79,1.801
0.48,36.83,1.804
0.48,36.86,1.806
0.48,36.89,1.807
0.49,36.92,1.809
0.49,36.96,1.810
0.49,36.99,1.811
0.49,37.02,1.814
0.49,37.05,1.815
0.49,37.09,1.818
0.50,37.12,1.818
0.50,37.15,1.820
0.50,37.19,1.821
0.50,37.22,1.823
0.50,37.25,1.824
0.50,37.28,1.826
0.50,37.32,1.828
0.51,37.35,1.830
0.51,37.38,1.831
0.51,37.41,1.832
0.51,37.45,1.833
0.51,37.48,1.834
0.51,37.51,1.836
0.52,37.55,1.838
0.52,37.58,1.839
0.52,37.61,1.840
0.52,37.64,1.842
0.52,37.68,1.844
0.53,37.71,1.847
0.53,37.74,1.851
0.53,37.78,1.856
0.53,37.81,1.859
0.53,37.84,1.862
0.53,37.87,1.863
0.53,37.91,1.865
0.54,37.94,1.866
0.54,37.97,1.868
0.54,38.00,1.871
0.54,38.04,1.872
0.54,38.07,1.874
0.55,38.10,1.876
0.55,38.14,1.879
0.55,38.17,1.883
0.55,38.20,1.886
0.55,38.23,1.888
0.55,38.27,1.890
0.55,38.30,1.891
0.56,38.33,1.894
0.56,38.37,1.895
0.56,38.40,1.896
0.56,38.43,1.898
0.56,38.46,1.899
0.57,38.50,1.900
0.57,38.53,1.901
0.57,38.56,1.903
0.57,38.60,1.904
0.57,38.63,1.905
0.57,38.66,1.907
0.58,38.69,1.908
0.58,38.73,1.910
0.58,38.76,1.912
0.58,38.79,1.916
0.58,38.83,1.921
0.58,38.86,1.926
0.58,38.89,1.930
0.59,38.92,1.932
0.59,38.96,1.933
0.59,38.99,1.934
0.59,39.02,1.935
0.59,39.06,1.936
0.60,39.09,1.937
0.60,39.12,1.938
0.60,39.16,1.939
0.60,39.19,1.940
0.60,39.22,1.941
0.60,39.25,1.942
0.60,39.28,1.944
0.61,39.32,1.945
0.61,39.35,1.946
0.61,39.38,1.947
0.61,39.42,1.949
0.61,39.45,1.950
0.62,39.48,1.951
0.62,39.52,1.954
0.62,39.55,1.960
0.62,39.58,1.967
0.62,39.62,1.972
0.62,39.65,1.979
0.63,39.68,1.984
0.63,39.71,1.986
0.63,39.75,1.987
0.63,39.78,1.988
0.63,39.81,1.989
0.63,39.85,1.989
0.63,39.88,1.990
0.64,39.91,1.991
0.64,39.95,1.992
0.64,39.98,1.993
0.64,40.01,1.994
0.64,40.04,1.995
0.65,40.08,1.999
0.65,40.11,2.002
0.65,40.14,2.003
0.65,40.18,2.005
0.65,40.21,2.006
0.65,40.24,2.007
0.65,40.28,2.008
0.66,40.31,2.009
0.66,40.34,2.010
0.66,40.37,2.011
0.66,40.41,2.012
0.66,40.44,2.014
0.67,40.47,2.015
0.67,40.51,2.017
0.67,40.54,2.018
0.67,40.57,2.019
0.67,40.61,2.020
0.67,40.64,2.021
0.68,40.67,2.022
0.68,40.70,2.023
0.68,40.74,2.025
0.68,40.77,2.026
0.68,40.80,2.027
0.68,40.84,2.028
0.68,40.87,2.029
0.69,40.90,2.031
0.69,40.93,2.032
0.69,40.97,2.033
0.69,41.00,2.035
0.69,41.03,2.036
0.70,41.07,2.037
0.70,41.10,2.038
0.70,41.13,2.038
0.70,41.17,2.039
0.70,41.20,2.040
0.70,41.23,2.041
0.70,41.27,2.042
0.71,41.30,2.043
0.71,41.33,2.044
0.71,41.36,2.046
0.71,41.40,2.047
0.71,41.43,2.049
0.72,41.46,2.051
0.72,41.50,2.053
0.72,41.53,2.054
0.72,41.56,2.056
0.72,41.60,2.058
0.72,41.63,2.059
0.73,41.66,2.061
0.73,41.70,2.062
0.73,41.73,2.063
0.73,41.76,2.064
0.73,41.79,2.065
0.73,41.83,2.066
0.73,41.86,2.067
0.74,41.89,2.068
0.74,41.93,2.069
0.74,41.96,2.070
0.74,41.99,2.071
0.74,42.02,2.072
0.75,42.06,2.073
0.75,42.09,2.074
0.75,42.12,2.075
0.75,42.16,2.076
0.75,42.19,2.077
0.75,42.22,2.078
0.75,42.26,2.078
0.76,42.29,2.080
0.76,42.32,2.081
0.76,42.36,2.082
0.76,42.39,2.083
0.76,42.42,2.084
0.77,42.46,2.086
0.77,42.49,2.087
0.77,42.52,2.089
0.77,42.55,2.090
0.77,42.59,2.091
0.77,42.62,2.093
0.78,42.65,2.094
0.78,42.69,2.095
0.78,42.72,2.097
0.78,42.75,2.098
0.78,42.79,2.099
0.78,42.82,2.100
0.78,42.85,2.101
0.79,42.88,2.102
0.79,42.92,2.103
0.79,42.95,2.104
0.79,42.98,2.106
0.79,43.02,2.107
0.80,43.05,2.108
0.80,43.08,2.109
0.80,43.12,2.110
0.80,43.15,2.111
0.80,43.18,2.112
0.80,43.22,2.113
0.80,43.25,2.114
0.81,43.28,2.115
0.81,43.32,2.116
0.81,43.35,2.116
0.81,43.38,2.117
0.81,43.41,2.118
0.82,43.45,2.119
0.82,43.48,2.121
0.82,43.51,2.122
0.82,43.55,2.123
0.82,43.58,2.125
0.82,43.61,2.127
0.83,43.65,2.128
0.83,43.68,2.129
0.83,43.71,2.130
0.83,43.74,2.131
0.83,43.78,2.132
0.83,43.81,2.133
0.83,43.84,2.133
0.84,43.88,2.134
0.84,43.91,2.135
0.84,43.94,2.136
0.84,43.98,2.137
0.84,44.01,2.138
0.85,44.04,2.139
0.85,44.08,2.140
0.85,44.11,2.141
0.85,44.14,2.142
0.85,44.18,2.142
0.85,44.21,2.143
0.85,44.24,2.144
0.86,44.27,2.145
0.86,44.31,2.146
0.86,44.34,2.147
0.86,44.38,2.148
0.86,44.41,2.149
0.87,44.44,2.150
0.87,44.47,2.151
0.87,44.51,2.153
0.87,44.54,2.154
0.87,44.57,2.155
0.87,44.61,2.156
0.88,44.64,2.157
0.88,44.67,2.158
0.88,44.71,2.160
0.88,44.74,2.161
0.88,44.77,2.161
0.88,44.81,2.162
0.88,44.84,2.162
0.89,44.87,2.163
0.89,44.91,2.163
0.89,44.94,2.164
0.89,44.97,2.164
0.89,45.01,2.165
0.90,45.04,2.166
0.90,45.07,2.167
0.90,45.11,2.169
0.90,45.14,2.170
0.90,45.17,2.171
0.90,45.20,2.172
0.90,45.24,2.173
0.91,45.27,2.174
0.91,45.30,2.175
0.91,45.34,2.176
0.91,45.37,2.177
0.91,45.40,2.178
0.92,45.44,2.179
0.92,45.47,2.180
0.92,45.50,2.180
0.92,45.54,2.181
0.92,45.57,2.182
0.92,45.60,2.183
0.93,45.64,2.183
0.93,45.67,2.184
0.93,45.70,2.185
0.93,45.73,2.186
0.93,45.77,2.187
0.93,45.80,2.188
0.93,45.83,2.189
0.94,45.87,2.190
0.94,45.90,2.191
0.94,45.93,2.192
0.94,45.97,2.193
0.94,46.00,2.194
0.95,46.03,2.194
0.95,46.07,2.195
0.95,46.10,2.195
0.95,46.13,2.196
0.95,46.17,2.197
0.95,46.20,2.197
0.95,46.23,2.198
0.96,46.27,2.199
0.96,46.30,2.200
0.96,46.33,2.201
0.96,46.37,2.202
0.96,46.40,2.202
0.97,46.43,2.203
0.97,46.47,2.204
0.97,46.50,2.205
0.97,46.53,2.206
0.97,46.57,2.206
0.97,46.60,2.207
0.98,46.63,2.208
0.98,46.66,2.209
0.98,46.70,2.210
0.98,46.73,2.211
0.98,46.76,2.212
0.98,46.80,2.214
0.98,46.83,2.215
0.99,46.86,2.216
0.99,46.90,2.217
0.99,46.93,2.218
0.99,46.96,2.218
0.99,47.00,2.219
1.00,47.03,2.219
1.00,47.06,2.220
1.00,47.10,2.220
1.00,47.13,2.221
1.00,47.16,2.222
1.00,47.20,2.222
1.00,47.23,2.223
1.01,47.26,2.224
1.01,47.29,2.226
1.01,47.33,2.228
1.01,47.36,2.230
1.01,47.39,2.231
1.02,47.43,2.233
1.02,47.46,2.234
1.02,47.49,2.235
1.02,47.53,2.235
1.02,47.56,2.235
1.02,47.59,2.236
1.03,47.63,2.236
1.03,47.66,2.237
1.03,47.69,2.238
1.03,47.73,2.239
1.03,47.76,2.240
1.03,47.79,2.240
1.03,47.83,2.241
1.04,47.86,2.242
1.04,47.89,2.242
1.04,47.93,2.242
1.04,47.96,2.243
1.04,47.99,2.243
1.05,48.03,2.244
1.05,48.06,2.246
1.05,48.09,2.248
1.05,48.13,2.249
1.05,48.16,2.250
1.05,48.19,2.251
1.05,48.23,2.252
1.06,48.26,2.253
1.06,48.29,2.253
1.06,48.33,2.253
1.06,48.36,2.254
1.06,48.39,2.254
1.07,48.43,2.255
1.07,48.46,2.255
1.07,48.49,2.256
1.07,48.52,2.256
1.07,48.56,2.256
1.07,48.59,2.257
1.08,48.62,2.257
1.08,48.66,2.258
1.08,48.69,2.258
1.08,48.73,2.259
1.08,48.76,2.260
1.08,48.79,2.261
1.08,48.82,2.262
1.09,48.86,2.263
1.09,48.89,2.264
1.09,48.92,2.265
1.09,48.96,2.267
1.09,48.99,2.268
1.09,49.02,2.269
1.10,49.06,2.270
1.10,49.09,2.271
1.10,49.12,2.272
1.10,49.16,2.273
1.10,49.19,2.273
1.11,49.22,2.274
1.11,49.25,2.274
1.11,49.29,2.275
1.11,49.32,2.275
1.11,49.36,2.276
1.11,49.39,2.276
1.12,49.42,2.277
1.12,49.46,2.277
1.12,49.49,2.278
1.12,49.52,2.278
1.12,49.56,2.278
1.12,49.59,2.279
1.13,49.62,2.279
1.13,49.66,2.280
1.13,49.69,2.281
1.13,49.72,2.282
1.13,49.76,2.283
1.13,49.79,2.284
1.13,49.82,2.287
1.14,49.86,2.288
1.14,49.89,2.289
1.14,49.92,2.290
1.14,49.95,2.290
1.14,49.99,2.291
1.14,50.02,2.291
1.15,50.05,2.292
1.15,50.09,2.292
1.15,50.12,2.293
1.15,50.16,2.293
1.15,50.19,2.294
1.16,50.22,2.294
1.16,50.25,2.295
1.16,50.29,2.295
1.16,50.32,2.296
1.16,50.35,2.297
1.16,50.39,2.297
1.17,50.42,2.298
1.17,50.45,2.299
1.17,50.49,2.300
1.17,50.52,2.300
1.17,50.55,2.301
1.17,50.59,2.301
1.18,50.62,2.301
1.18,50.65,2.301
1.18,50.69,2.302
1.18,50.72,2.302
1.18,50.75,2.302
1.18,50.79,2.303
1.18,50.82,2.304
1.19,50.85,2.305
1.19,50.89,2.306
1.19,50.92,2.307
1.19,50.95,2.308
1.19,50.99,2.309
1.19,51.02,2.310
1.20,51.05,2.310
1.20,51.09,2.310
1.20,51.12,2.310
1.20,51.15,2.310
1.20,51.19,2.310
1.21,51.22,2.310
1.21,51.25,2.311
1.21,51.29,2.312
1.21,51.32,2.314
1.21,51.35,2.315
1.21,51.38,2.315
1.22,51.42,2.316
1.22,51.45,2.317
1.22,51.49,2.318
1.22,51.52,2.318
1.22,51.55,2.319
1.22,51.59,2.320
1.23,51.62,2.320
1.23,51.65,2.321
1.23,51.69,2.322
1.23,51.72,2.323
1.23,51.75,2.323
1.23,51.79,2.324
1.23,51.82,2.325
1.24,51.85,2.325
1.24,51.89,2.326
1.24,51.92,2.326
1.24,51.95,2.327
1.24,51.98,2.327
1.24,52.02,2.328
1.25,52.05,2.328
1.25,52.08,2.329
1.25,52.12,2.329
1.25,52.15,2.329
1.25,52.18,2.330
1.26,52.22,2.330
1.26,52.25,2.331
1.26,52.28,2.331
1.26,52.32,2.332
1.26,52.35,2.332
1.26,52.38,2.333
1.27,52.42,2.334
1.27,52.45,2.334
1.27,52.48,2.335
1.27,52.52,2.335
1.27,52.55,2.336
1.27,52.58,2.336
1.28,52.62,2.336
1.28,52.65,2.337
1.28,52.68,2.337
1.28,52.72,2.337
1.28,52.75,2.338
1.28,52.78,2.338
1.28,52.82,2.339
1.29,52.85,2.339
1.29,52.88,2.340
1.29,52.92,2.340
1.29,52.95,2.341
1.29,52.98,2.342
1.29,53.02,2.342
1.30,53.05,2.343
1.30,53.08,2.344
1.30,53.12,2.345
1.30,53.15,2.345
1.30,53.18,2.346
1.31,53.22,2.346
1.31,53.25,2.347
1.31,53.28,2.347
1.31,53.32,2.347
1.31,53.35,2.348
1.31,53.38,2.348
1.32,53.42,2.349
1.32,53.45,2.350
1.32,53.48,2.351
1.32,53.52,2.352
1.32,53.55,2.352
1.32,53.58,2.352
1.33,53.62,2.353
1.33,53.65,2.353
1.33,53.68,2.353
1.33,53.72,2.354
1.33,53.75,2.354
1.33,53.78,2.354
1.33,53.82,2.355
1.34,53.85,2.355
1.34,53.88,2.355
1.34,53.92,2.356
1.34,53.95,2.356
1.34,53.98,2.356
1.34,54.02,2.357
1.35,54.05,2.357
1.35,54.08,2.358
1.35,54.12,2.359
1.35,54.15,2.360
1.35,54.18,2.360
1.36,54.22,2.361
1.36,54.25,2.362
1.36,54.28,2.362
1.36,54.32,2.362
1.36,54.35,2.363
1.36,54.38,2.363
1.37,54.42,2.364
1.37,54.45,2.364
1.37,54.48,2.365
1.37,54.52,2.365
1.37,54.55,2.366
1.37,54.58,2.366
1.38,54.62,2.366
1.38,54.65,2.366
1.38,54.68,2.366
1.38,54.72,2.366
1.38,54.75,2.367
1.38,54.78,2.367
1.38,54.82,2.368
1.39,54.85,2.369
1.39,54.88,2.369
1.39,54.92,2.370
1.39,54.95,2.370
1.39,54.98,2.371
1.39,55.02,2.371
1.40,55.05,2.372
1.40,55.08,2.372
1.40,55.12,2.372
1.40,55.15,2.373
1.40,55.18,2.373
1.41,55.22,2.374
1.41,55.25,2.374
1.41,55.28,2.375
1.41,55.32,2.375
1.41,55.35,2.375
1.41,55.38,2.375
1.42,55.42,2.376
1.42,55.45,2.376
1.42,55.48,2.377
1.42,55.52,2.377
1.42,55.55,2.378
1.42,55.58,2.379
1.43,55.62,2.379
1.43,55.65,2.380
1.43,55.68,2.380
1.43,55.72,2.380
1.43,55.75,2.380
1.43,55.78,2.381
1.43,55.81,2.381
1.44,55.85,2.382
1.44,55.88,2.382
1.44,55.91,2.383
1.44,55.95,2.384
1.44,55.98,2.385
1.44,56.01,2.385
1.45,56.05,2.386
1.45,56.08,2.386
1.45,56.12,2.387
1.45,56.15,2.387
1.45,56.18,2.387
1.46,56.22,2.387
1.46,56.25,2.388
1.46,56.28,2.389
1.46,56.32,2.389
1.46,56.35,2.390
1.46,56.38,2.390
1.47,56.42,2.391
1.47,56.45,2.391
1.47,56.48,2.392
1.47,56.52,2.392
1.47,56.55,2.392
1.47,56.58,2.393
1.48,56.61,2.393
1.48,56.65,2.394
1.48,56.68,2.395
1.48,56.71,2.395
1.48,56.75,2.396
1.48,56.78,2.396
1.48,56.81,2.396
1.49,56.85,2.396
1.49,56.88,2.397
1.49,56.92,2.397
1.49,56.95,2.397
1.49,56.98,2.397
1.49,57.02,2.398
1.50,57.05,2.398
1.50,57.08,2.398
1.50,57.11,2.398
1.50,57.15,2.398
1.50,57.18,2.399
1.51,57.22,2.399
1.51,57.25,2.400
1.51,57.28,2.400
1.51,57.32,2.401
1.51,57.35,2.402
1.51,57.38,2.402
1.52,57.41,2.403
1.52,57.45,2.403
1.52,57.48,2.404
1.52,57.52,2.405
1.52,57.55,2.405
1.52,57.58,2.406
1.53,57.62,2.407
1.53,57.65,2.407
1.53,57.68,2.408
1.53,57.72,2.408
1.53,57.75,2.409
1.53,57.78,2.409
1.53,57.82,2.410
1.54,57.85,2.410
1.54,57.88,2.411
1.54,57.92,2.411
1.54,57.95,2.412
1.54,57.98,2.413
1.54,58.02,2.414
1.55,58.05,2.414
1.55,58.08,2.414
1.55,58.11,2.415
1.55,58.15,2.415
1.55,58.18,2.416
1.56,58.21,2.416
1.56,58.25,2.417
1.56,58.28,2.417
1.56,58.31,2.418
1.56,58.35,2.418
1.56,58.38,2.418
1.57,58.41,2.418
1.57,58.45,2.419
1.57,58.48,2.419
1.57,58.52,2.419
1.57,58.55,2.420
1.57,58.58,2.421
1.58,58.62,2.423
1.58,58.65,2.426
1.58,58.68,2.441
1.58,58.72,2.475
1.58,58.75,2.556
1.58,58.78,2.664
1.58,58.82,2.785
1.59,58.85,2.904
1.59,58.88,2.971
1.59,58.91,2.989
1.59,58.95,2.983
1.59,58.98,2.974
1.59,59.01,2.958
1.60,59.05,2.953
1.60,59.08,2.951
1.60,59.11,2.949
1.60,59.15,2.946
1.60,59.18,2.944
1.61,59.21,2.942
1.61,59.25,2.939
1.61,59.28,2.937
1.61,59.31,2.933
1.61,59.35,2.927
1.61,59.38,2.919
1.62,59.41,2.908
1.62,59.45,2.902
1.62,59.48,2.899
1.62,59.51,2.896
1.62,59.55,2.891
1.62,59.58,2.889
1.63,59.61,2.886
1.63,59.65,2.884
1.63,59.68,2.881
1.63,59.71,2.878
1.63,59.75,2.875
1.63,59.78,2.873
1.63,59.82,2.871
1.64,59.85,2.869
1.64,59.88,2.867
1.64,59.92,2.865
1.64,59.95,2.862
1.64,59.98,2.860
1.64,60.01,2.858
1.65,60.05,2.856
1.65,60.08,2.854
1.65,60.12,2.852
1.65,60.15,2.850
1.65,60.18,2.847
1.66,60.22,2.845
1.66,60.25,2.843
1.66,60.28,2.841
1.66,60.32,2.838
1.66,60.35,2.835
1.66,60.38,2.832
1.67,60.42,2.829
1.67,60.45,2.826
1.67,60.48,2.824
1.67,60.52,2.821
1.67,60.55,2.819
1.67,60.58,2.817
1.68,60.62,2.815
1.68,60.65,2.813
1.68,60.68,2.811
1.68,60.72,2.809
1.68,60.75,2.807
1.68,60.78,2.805
1.68,60.82,2.803
1.69,60.85,2.801
1.69,60.88,2.799
1.69,60.92,2.797
1.69,60.95,2.795
1.69,60.98,2.793
1.69,61.02,2.791
1.70,61.05,2.789
1.70,61.08,2.787
1.70,61.12,2.785
1.70,61.15,2.784
1.70,61.18,2.782
1.71,61.22,2.780
1.71,61.25,2.779
1.71,61.28,2.777
1.71,61.32,2.776
1.71,61.35,2.774
1.71,61.38,2.773
1.72,61.42,2.771
1.72,61.45,2.769
1.72,61.48,2.768
1.72,61.52,2.766
1.72,61.55,2.765
1.72,61.58,2.763
1.73,61.62,2.762
1.73,61.65,2.760
1.73,61.68,2.758
1.73,61.72,2.757
1.73,61.75,2.755
1.73,61.78,2.753
1.73,61.82,2.752
1.74,61.85,2.750
1.74,61.88,2.748
1.74,61.92,2.747
1.74,61.95,2.745
1.74,61.98,2.743
1.74,62.02,2.741
1.75,62.05,2.740
1.75,62.08,2.739
1.75,62.12,2.737
1.75,62.15,2.736
1.75,62.18,2.735
1.76,62.22,2.734
1.76,62.25,2.732
1.76,62.28,2.731
1.76,62.32,2.729
1.76,62.35,2.728
1.76,62.38,2.726
1.77,62.42,2.725
1.77,62.45,2.723
1.77,62.48,2.722
1.77,62.52,2.720
1.77,62.55,2.719
1.77,62.58,2.718
1.78,62.62,2.716
1.78,62.65,2.715
1.78,62.68,2.714
1.78,62.72,2.713
1.78,62.75,2.712
1.78,62.78,2.711
1.78,62.82,2.709
1.79,62.85,2.708
1.79,62.88,2.707
1.79,62.92,2.706
1.79,62.95,2.705
1.79,62.98,2.704
1.79,63.02,2.703
1.80,63.05,2.702
1.80,63.08,2.701
1.80,63.12,2.701
1.80,63.15,2.699
1.80,63.18,2.698
1.81,63.22,2.697
1.81,63.25,2.696
1.81,63.28,2.695
1.81,63.32,2.693
1.81,63.35,2.692
1.81,63.38,2.691
1.82,63.42,2.690
1.82,63.45,2.689
1.82,63.49,2.688
1.82,63.52,2.687
1.82,63.55,2.686
1.82,63.59,2.686
1.83,63.62,2.685
1.83,63.65,2.684
1.83,63.69,2.683
1.83,63.72,2.682
1.83,63.75,2.681
1.83,63.79,2.680
1.83,63.82,2.679
1.84,63.85,2.678
1.84,63.89,2.677
1.84,63.92,2.677
1.84,63.95,2.676
1.84,63.99,2.676
1.84,64.02,2.675
1.85,64.05,2.674
1.85,64.09,2.674
1.85,64.12,2.673
1.85,64.15,2.672
1.85,64.19,2.671
1.86,64.22,2.670
1.86,64.25,2.669
1.86,64.29,2.668
1.86,64.32,2.666
1.86,64.35,2.665
1.86,64.39,2.664
1.87,64.42,2.663
1.87,64.45,2.663
1.87,64.49,2.662
1.87,64.52,2.662
1.87,64.55,2.661
1.87,64.59,2.661
1.88,64.62,2.662
1.88,64.65,2.662
1.88,64.69,2.662
1.88,64.72,2.661
1.88,64.75,2.661
1.88,64.79,2.660
1.88,64.82,2.658
1.89,64.85,2.655
1.89,64.89,2.653
1.89,64.92,2.652
1.89,64.95,2.652
1.89,64.99,2.651
1.89,65.02,2.651
1.90,65.05,2.650
1.90,65.09,2.650
1.90,65.12,2.650
1.90,65.15,2.649
1.90,65.19,2.649
1.91,65.22,2.648
1.91,65.25,2.648
1.91,65.29,2.647
1.91,65.32,2.647
1.91,65.35,2.646
1.91,65.39,2.646
1.92,65.42,2.646
1.92,65.45,2.646
1.92,65.49,2.645
1.92,65.52,2.645
1.92,65.55,2.644
1.92,65.59,2.643
1.93,65.62,2.642
1.93,65.65,2.642
1.93,65.69,2.641
1.93,65.72,2.640
1.93,65.75,2.640
1.93,65.79,2.640
1.93,65.82,2.639
1.94,65.86,2.640
1.94,65.89,2.640
1.94,65.92,2.639
1.94,65.96,2.639
1.94,65.99,2.639
1.94,66.02,2.639
1.95,66.06,2.639
1.95,66.09,2.638
1.95,66.12,2.638
1.95,66.15,2.637
1.95,66.19,2.637
1.96,66.22,2.636
1.96,66.25,2.636
1.96,66.29,2.635
1.96,66.32,2.635
1.96,66.36,2.635
1.96,66.39,2.634
1.97,66.42,2.634
1.97,66.46,2.633
1.97,66.49,2.633
1.97,66.52,2.633
1.97,66.56,2.632
1.97,66.59,2.632
1.98,66.62,2.631
1.98,66.66,2.631
1.98,66.69,2.631
1.98,66.72,2.631
1.98,66.76,2.631
1.98,66.79,2.631
1.98,66.82,2.631
1.99,66.86,2.631
1.99,66.89,2.631
1.99,66.92,2.631
1.99,66.96,2.631
1.99,66.99,2.631
1.99,67.02,2.632
2.00,67.06,2.634
2.00,67.09,2.635
2.00,67.12,2.636
2.00,67.16,2.638
2.00,67.19,2.639
2.01,67.22,2.640
2.01,67.26,2.640
2.01,67.29,2.640
2.01,67.32,2.640
2.01,67.36,2.641
2.01,67.39,2.641
2.02,67.42,2.641
2.02,67.46,2.641
2.02,67.49,2.641
2.02,67.52,2.641
2.02,67.56,2.642
2.02,67.59,2.642
2.03,67.62,2.642
2.03,67.66,2.642
2.03,67.69,2.642
2.03,67.72,2.642
2.03,67.76,2.642
2.03,67.79,2.642
2.03,67.82,2.642
2.04,67.86,2.642
2.04,67.89,2.642
2.04,67.92,2.642
2.04,67.96,2.642
2.04,67.99,2.642
2.04,68.02,2.642
2.05,68.06,2.642
2.05,68.09,2.642
2.05,68.12,2.642
2.05,68.16,2.642
2.05,68.19,2.642
2.06,68.22,2.642
2.06,68.26,2.642
2.06,68.29,2.642
2.06,68.33,2.642
2.06,68.36,2.642
2.06,68.39,2.642
2.07,68.42,2.642
2.07,68.46,2.642
2.07,68.49,2.642
2.07,68.52,2.641
2.07,68.56,2.641
2.07,68.59,2.641
2.08,68.62,2.641
2.08,68.66,2.641
2.08,68.69,2.642
2.08,68.73,2.642
2.08,68.76,2.642
2.08,68.79,2.642
2.08,68.82,2.642
2.09,68.86,2.642
2.09,68.89,2.641
2.09,68.93,2.641
2.09,68.96,2.641
2.09,68.99,2.641
2.09,69.02,2.641
2.10,69.06,2.641
2.10,69.09,2.642
2.10,69.13,2.642
2.10,69.16,2.642
2.10,69.19,2.642
2.11,69.23,2.641
2.11,69.26,2.641
2.11,69.29,2.641
2.11,69.33,2.641
2.11,69.36,2.641
2.11,69.39,2.641
2.12,69.43,2.641
2.12,69.46,2.641
2.12,69.49,2.641
2.12,69.53,2.641
2.12,69.56,2.641
2.12,69.59,2.641
2.13,69.63,2.641
2.13,69.66,2.641
2.13,69.69,2.641
2.13,69.73,2.641
2.13,69.76,2.641
2.13,69.79,2.641
2.14,69.83,2.641
2.14,69.86,2.641
2.14,69.89,2.641
2.14,69.93,2.641
2.14,69.96,2.641
2.14,69.99,2.641
2.14,70.03,2.641
2.15,70.06,2.641
2.15,70.09,2.642
2.15,70.13,2.642
2.15,70.16,2.642
2.15,70.19,2.642
2.16,70.23,2.642
2.16,70.26,2.642
2.16,70.29,2.642
2.16,70.33,2.642
2.16,70.36,2.641
2.16,70.39,2.641
2.16,70.43,2.641
2.17,70.46,2.641
2.17,70.49,2.641
2.17,70.53,2.641
2.17,70.56,2.641
2.17,70.59,2.641
2.18,70.63,2.641
2.18,70.66,2.641
2.18,70.69,2.641
2.18,70.73,2.641
2.18,70.76,2.641
2.18,70.79,2.641
2.19,70.83,2.641
2.19,70.86,2.641
2.19,70.89,2.642
2.19,70.93,2.642
2.19,70.96,2.642
2.19,70.99,2.643
2.19,71.03,2.643
2.20,71.06,2.644
2.20,71.09,2.644
2.20,71.13,2.644
2.20,71.16,2.644
2.20,71.19,2.644
2.21,71.23,2.644
2.21,71.26,2.644
2.21,71.29,2.644
2.21,71.33,2.644
2.21,71.36,2.645
2.21,71.40,2.645
2.21,71.43,2.646
2.22,71.46,2.646
2.22,71.49,2.646
2.22,71.53,2.646
2.22,71.56,2.647
2.22,71.59,2.647
2.23,71.63,2.647
2.23,71.66,2.647
2.23,71.69,2.647
2.23,71.73,2.647
2.23,71.76,2.647
2.23,71.80,2.647
2.24,71.83,2.647
2.24,71.86,2.648
2.24,71.90,2.648
2.24,71.93,2.649
2.24,71.96,2.650
2.24,72.00,2.650
2.24,72.03,2.650
2.25,72.06,2.651
2.25,72.10,2.651
2.25,72.13,2.652
2.25,72.16,2.652
2.25,72.20,2.652
2.26,72.23,2.652
2.26,72.26,2.653
2.26,72.30,2.653
2.26,72.33,2.654
2.26,72.36,2.654
2.26,72.40,2.655
2.26,72.43,2.655
2.27,72.46,2.655
2.27,72.50,2.655
2.27,72.53,2.655
2.27,72.56,2.656
2.27,72.60,2.656
2.28,72.63,2.656
2.28,72.66,2.656
2.28,72.70,2.656
2.28,72.73,2.656
2.28,72.76,2.656
2.28,72.80,2.656
2.29,72.83,2.656
2.29,72.86,2.656
2.29,72.90,2.656
2.29,72.93,2.656
2.29,72.96,2.656
2.29,73.00,2.656
2.29,73.03,2.657
2.30,73.06,2.657
2.30,73.10,2.658
2.30,73.13,2.658
2.30,73.16,2.659
2.30,73.20,2.659
2.31,73.23,2.659
2.31,73.27,2.660
2.31,73.30,2.660
2.31,73.33,2.661
2.31,73.37,2.661
2.31,73.40,2.662
2.31,73.43,2.662
2.32,73.47,2.663
2.32,73.50,2.664
2.32,73.53,2.664
2.32,73.57,2.665
2.32,73.60,2.665
2.33,73.63,2.665
2.33,73.67,2.665
2.33,73.70,2.665
2.33,73.73,2.665
2.33,73.77,2.666
2.33,73.80,2.666
2.34,73.83,2.667
2.34,73.87,2.667
2.34,73.90,2.668
2.34,73.93,2.669
2.34,73.97,2.669
2.34,74.00,2.669
2.34,74.03,2.669
2.35,74.07,2.670
2.35,74.10,2.670
2.35,74.13,2.670
2.35,74.17,2.671
2.35,74.20,2.671
2.36,74.23,2.671
2.36,74.27,2.672
2.36,74.30,2.672
2.36,74.33,2.672
2.36,74.37,2.673
2.36,74.40,2.673
2.36,74.43,2.673
2.37,74.47,2.673
2.37,74.50,2.673
2.37,74.53,2.674
2.37,74.57,2.674
2.37,74.60,2.674
2.38,74.63,2.675
2.38,74.67,2.675
2.38,74.70,2.675
2.38,74.74,2.675
2.38,74.77,2.676
2.38,74.80,2.676
2.39,74.84,2.676
2.39,74.87,2.677
2.39,74.90,2.677
2.39,74.94,2.678
2.39,74.97,2.678
2.39,75.00,2.679
2.39,75.03,2.679
2.40,75.07,2.680
2.40,75.10,2.680
2.40,75.14,2.680
2.40,75.17,2.681
2.40,75.20,2.681
2.41,75.23,2.682
2.41,75.27,2.682
2.41,75.30,2.682
2.41,75.34,2.683
2.41,75.37,2.683
2.41,75.40,2.684
2.41,75.44,2.684
2.42,75.47,2.684
2.42,75.50,2.684
2.42,75.54,2.685
2.42,75.57,2.685
2.42,75.60,2.685
2.43,75.64,2.685
2.43,75.67,2.686
2.43,75.70,2.686
2.43,75.74,2.686
2.43,75.77,2.686
2.43,75.80,2.686
2.44,75.84,2.686
2.44,75.87,2.686
2.44,75.90,2.687
2.44,75.94,2.687
2.44,75.97,2.688
2.44,76.00,2.689
2.44,76.04,2.689
2.45,76.07,2.689
2.45,76.10,2.690
2.45,76.14,2.690
2.45,76.17,2.691
2.45,76.20,2.691
2.46,76.24,2.692
2.46,76.27,2.692
2.46,76.30,2.693
2.46,76.34,2.693
2.46,76.37,2.694
2.46,76.40,2.694
2.46,76.44,2.693
2.47,76.47,2.693
2.47,76.50,2.693
2.47,76.54,2.693
2.47,76.57,2.694
2.47,76.60,2.694
2.48,76.64,2.695
2.48,76.67,2.696
2.48,76.70,2.696
2.48,76.74,2.697
2.48,76.77,2.697
2.48,76.80,2.698
2.49,76.84,2.698
2.49,76.87,2.698
2.49,76.90,2.698
2.49,76.94,2.699
2.49,76.97,2.699
2.49,77.00,2.700
2.49,77.04,2.700
2.50,77.07,2.701
2.50,77.10,2.701
2.50,77.14,2.701
2.50,77.17,2.702
2.50,77.20,2.702
2.51,77.24,2.703
2.51,77.27,2.703
2.51,77.30,2.704
2.51,77.34,2.706
2.51,77.37,2.707
2.51,77.41,2.708
2.51,77.44,2.708
2.52,77.47,2.709
2.52,77.51,2.709
2.52,77.54,2.709
2.52,77.57,2.709
2.52,77.61,2.709
2.53,77.64,2.709
2.53,77.67,2.709
2.53,77.71,2.709
2.53,77.74,2.709
2.53,77.77,2.709
2.53,77.81,2.710
2.54,77.84,2.710
2.54,77.87,2.711
2.54,77.91,2.711
2.54,77.94,2.712
2.54,77.97,2.713
2.54,78.01,2.713
2.54,78.04,2.713
2.55,78.07,2.713
2.55,78.11,2.713
2.55,78.14,2.712
2.55,78.17,2.712
2.55,78.21,2.712
2.56,78.24,2.712
2.56,78.27,2.712
2.56,78.31,2.712
2.56,78.34,2.712
2.56,78.37,2.712
2.56,78.41,2.713
2.56,78.44,2.713
2.57,78.47,2.714
2.57,78.51,2.714
2.57,78.54,2.715
2.57,78.57,2.715
2.57,78.61,2.716
2.58,78.64,2.716
2.58,78.67,2.717
2.58,78.71,2.718
2.58,78.74,2.720
2.58,78.77,2.720
2.58,78.81,2.721
2.59,78.84,2.722
2.59,78.87,2.722
2.59,78.91,2.723
2.59,78.94,2.723
2.59,78.97,2.724
2.59,79.01,2.724
2.59,79.04,2.724
2.60,79.08,2.724
2.60,79.11,2.725
2.60,79.14,2.725
2.60,79.17,2.726
2.60,79.21,2.726
2.61,79.24,2.726
2.61,79.27,2.727
2.61,79.31,2.728
2.61,79.34,2.728
2.61,79.38,2.729
2.61,79.41,2.729
2.61,79.44,2.730
2.62,79.48,2.730
2.62,79.51,2.730
2.62,79.54,2.730
2.62,79.58,2.730
2.62,79.61,2.730
2.63,79.64,2.730
2.63,79.68,2.731
2.63,79.71,2.731
2.63,79.74,2.731
2.63,79.78,2.732
2.63,79.81,2.732
2.64,79.84,2.732
2.64,79.88,2.732
2.64,79.91,2.733
2.64,79.94,2.733
2.64,79.98,2.733
2.64,80.01,2.733
2.64,80.04,2.733
2.65,80.08,2.733
2.65,80.11,2.734
2.65,80.14,2.735
2.65,80.18,2.736
2.65,80.21,2.738
2.66,80.24,2.739
2.66,80.28,2.740
2.66,80.31,2.741
2.66,80.34,2.741
2.66,80.38,2.742
2.66,80.41,2.742
2.66,80.44,2.743
2.67,80.48,2.743
2.67,80.51,2.743
2.67,80.54,2.744
2.67,80.58,2.744
2.67,80.61,2.744
2.68,80.64,2.745
2.68,80.68,2.745
2.68,80.71,2.745
2.68,80.74,2.744
2.68,80.78,2.744
2.68,80.81,2.745
2.69,80.84,2.745
2.69,80.88,2.745
2.69,80.91,2.745
2.69,80.94,2.745
2.69,80.98,2.745
2.69,81.01,2.745
2.69,81.04,2.746
2.70,81.08,2.747
2.70,81.11,2.747
2.70,81.14,2.748
2.70,81.18,2.748
2.70,81.21,2.748
2.71,81.24,2.748
2.71,81.28,2.748
2.71,81.31,2.748
2.71,81.34,2.748
2.71,81.38,2.748
2.71,81.41,2.749
2.71,81.44,2.749
2.72,81.48,2.749
2.72,81.51,2.750
2.72,81.54,2.750
2.72,81.58,2.751
2.72,81.61,2.751
2.73,81.64,2.752
2.73,81.68,2.752
2.73,81.71,2.753
2.73,81.74,2.753
2.73,81.78,2.754
2.73,81.81,2.754
2.74,81.85,2.755
2.74,81.88,2.755
2.74,81.91,2.755
2.74,81.95,2.755
2.74,81.98,2.755
2.74,82.01,2.755
2.74,82.04,2.755
2.75,82.08,2.755
2.75,82.11,2.756
2.75,82.15,2.756
2.75,82.18,2.756
2.75,82.21,2.756
2.76,82.24,2.757
2.76,82.28,2.756
2.76,82.31,2.756
2.76,82.34,2.756
2.76,82.38,2.756
2.76,82.41,2.756
2.76,82.44,2.755
2.77,82.48,2.755
2.77,82.51,2.755
2.77,82.55,2.755
2.77,82.58,2.755
2.77,82.61,2.755
2.78,82.65,2.756
2.78,82.68,2.756
2.78,82.71,2.757
2.78,82.75,2.757
2.78,82.78,2.758
2.78,82.81,2.758
2.79,82.85,2.758
2.79,82.88,2.759
2.79,82.91,2.759
2.79,82.95,2.759
2.79,82.98,2.759
2.79,83.01,2.759
2.79,83.05,2.759
2.80,83.08,2.759
2.80,83.11,2.759
2.80,83.15,2.759
2.80,83.18,2.759
2.80,83.21,2.759
2.81,83.25,2.759
2.81,83.28,2.759
2.81,83.31,2.760
2.81,83.35,2.760
2.81,83.38,2.760
2.81,83.41,2.761
2.81,83.45,2.761
2.82,83.48,2.761
2.82,83.51,2.761
2.82,83.55,2.762
2.82,83.58,2.762
2.82,83.61,2.762
2.83,83.65,2.762
2.83,83.68,2.762
2.83,83.72,2.763
2.83,83.75,2.763
2.83,83.78,2.763
2.83,83.81,2.763
2.84,83.85,2.764
2.84,83.88,2.764
2.84,83.91,2.763
2.84,83.95,2.763
2.84,83.98,2.763
2.84,84.01,2.763
2.84,84.05,2.763
2.85,84.08,2.763
2.85,84.12,2.763
2.85,84.15,2.763
2.85,84.18,2.763
2.85,84.21,2.763
2.86,84.25,2.763
2.86,84.28,2.764
2.86,84.31,2.764
2.86,84.35,2.764
2.86,84.38,2.764
2.86,84.41,2.764
2.86,84.45,2.765
2.87,84.48,2.765
2.87,84.52,2.765
2.87,84.55,2.766
2.87,84.58,2.766
2.87,84.62,2.766
2.88,84.65,2.766
2.88,84.68,2.766
2.88,84.72,2.767
2.88,84.75,2.767
2.88,84.78,2.767
2.88,84.82,2.767
2.89,84.85,2.768
2.89,84.88,2.768
2.89,84.92,2.768
2.89,84.95,2.768
2.89,84.98,2.768
2.89,85.02,2.768
2.89,85.05,2.768
2.90,85.08,2.769
2.90,85.12,2.769
2.90,85.15,2.769
2.90,85.18,2.769
2.90,85.22,2.769
2.91,85.25,2.769
2.91,85.28,2.769
2.91,85.32,2.769
2.91,85.35,2.769
2.91,85.38,2.769
2.91,85.42,2.769
2.91,85.45,2.769
2.92,85.48,2.769
2.92,85.52,2.769
2.92,85.55,2.769
2.92,85.58,2.769
2.92,85.62,2.769
2.93,85.65,2.769
2.93,85.68,2.769
2.93,85.72,2.770
2.93,85.75,2.770
2.93,85.78,2.770
2.93,85.82,2.770
2.94,85.85,2.770
2.94,85.88,2.770
2.94,85.92,2.770
2.94,85.95,2.770
2.94,85.98,2.770
2.94,86.02,2.771
2.94,86.05,2.771
2.95,86.08,2.771
2.95,86.12,2.771
2.95,86.15,2.771
2.95,86.18,2.771
2.95,86.22,2.771
2.96,86.25,2.772
2.96,86.29,2.772
2.96,86.32,2.773
2.96,86.35,2.773
2.96,86.39,2.773
2.96,86.42,2.773
2.96,86.45,2.773
2.97,86.49,2.773
2.97,86.52,2.774
2.97,86.55,2.774
2.97,86.59,2.774
2.97,86.62,2.774
2.98,86.65,2.775
2.98,86.69,2.775
2.98,86.72,2.776
2.98,86.75,2.776
2.98,86.78,2.777
2.98,86.82,2.777
2.99,86.85,2.778
2.99,86.89,2.778
2.99,86.92,2.779
2.99,86.95,2.779
2.99,86.99,2.779
2.99,87.02,2.780
2.99,87.05,2.781
3.00,87.09,2.781
3.00,87.12,2.782
3.00,87.15,2.782
3.00,87.18,2.782
3.00,87.22,2.783
3.01,87.25,2.783
3.01,87.29,2.782
3.01,87.32,2.782
3.01,87.35,2.782
3.01,87.39,2.782
3.01,87.42,2.782
3.01,87.45,2.782
3.02,87.49,2.783
3.02,87.52,2.783
3.02,87.55,2.783
3.02,87.59,2.784
3.02,87.62,2.784
3.03,87.65,2.785
3.03,87.69,2.785
3.03,87.72,2.786
3.03,87.75,2.786
3.03,87.79,2.786
3.03,87.82,2.787
3.04,87.85,2.787
3.04,87.89,2.787
3.04,87.92,2.787
3.04,87.95,2.788
3.04,87.99,2.788
3.04,88.02,2.789
3.04,88.05,2.790
3.05,88.09,2.791
3.05,88.12,2.793
3.05,88.15,2.794
3.05,88.19,2.794
3.05,88.22,2.795
3.06,88.25,2.795
3.06,88.29,2.795
3.06,88.32,2.795
3.06,88.35,2.796
3.06,88.39,2.796
3.06,88.42,2.796
3.06,88.45,2.796
3.07,88.49,2.796
3.07,88.52,2.797
3.07,88.55,2.797
3.07,88.59,2.798
3.07,88.62,2.798
3.08,88.65,2.799
3.08,88.69,2.799
3.08,88.72,2.800
3.08,88.75,2.800
3.08,88.79,2.801
3.08,88.82,2.802
3.09,88.85,2.802
3.09,88.89,2.803
3.09,88.92,2.804
3.09,88.95,2.804
3.09,88.99,2.805
3.09,89.02,2.805
3.09,89.05,2.805
3.10,89.09,2.805
3.10,89.12,2.806
3.10,89.16,2.806
3.10,89.19,2.806
3.10,89.22,2.807
3.11,89.25,2.807
3.11,89.29,2.808
3.11,89.32,2.808
3.11,89.36,2.809
3.11,89.39,2.809
3.11,89.42,2.810
3.11,89.45,2.810
3.12,89.49,2.811
3.12,89.52,2.811
3.12,89.56,2.811
3.12,89.59,2.812
3.12,89.62,2.812
3.13,89.66,2.813
3.13,89.69,2.813
3.13,89.72,2.814
3.13,89.76,2.815
3.13,89.79,2.816
3.13,89.82,2.817
3.14,89.85,2.818
3.14,89.89,2.819
3.14,89.92,2.820
3.14,89.96,2.822
3.14,89.99,2.823
3.14,90.02,2.824
3.14,90.06,2.825
3.15,90.09,2.825
3.15,90.12,2.826
3.15,90.16,2.827
3.15,90.19,2.827
3.15,90.22,2.828
3.16,90.26,2.829
3.16,90.29,2.830
3.16,90.32,2.831
3.16,90.36,2.832
3.16,90.39,2.833
3.16,90.42,2.834
3.16,90.46,2.834
3.17,90.49,2.835
3.17,90.52,2.836
3.17,90.56,2.837
3.17,90.59,2.837
3.17,90.62,2.838
3.18,90.66,2.839
3.18,90.69,2.839
3.18,90.72,2.840
3.18,90.76,2.840
3.18,90.79,2.841
3.18,90.82,2.842
3.19,90.86,2.842
3.19,90.89,2.843
3.19,90.92,2.843
3.19,90.96,2.843
3.19,90.99,2.844
3.19,91.02,2.844
3.19,91.06,2.844
3.20,91.09,2.845
3.20,91.12,2.846
3.20,91.16,2.847
3.20,91.19,2.849
3.20,91.22,2.851
3.21,91.26,2.852
3.21,91.29,2.853
3.21,91.32,2.855
3.21,91.36,2.856
3.21,91.39,2.857
3.21,91.43,2.857
3.21,91.46,2.858
3.22,91.49,2.859
3.22,91.53,2.860
3.22,91.56,2.861
3.22,91.59,2.863
3.22,91.62,2.864
3.23,91.66,2.865
3.23,91.69,2.866
3.23,91.72,2.867
3.23,91.76,2.867
3.23,91.79,2.867
3.23,91.83,2.868
3.24,91.86,2.868
3.24,91.89,2.869
3.24,91.93,2.869
3.24,91.96,2.870
3.24,91.99,2.871
3.24,92.02,2.871
3.24,92.06,2.872
3.25,92.09,2.873
3.25,92.13,2.874
3.25,92.16,2.875
3.25,92.19,2.875
3.25,92.23,2.876
3.26,92.26,2.878
3.26,92.29,2.879
3.26,92.33,2.881
3.26,92.36,2.882
3.26,92.39,2.883
3.26,92.43,2.884
3.26,92.46,2.885
3.27,92.49,2.886
3.27,92.53,2.886
3.27,92.56,2.887
3.27,92.59,2.888
3.27,92.63,2.889
3.28,92.66,2.890
3.28,92.69,2.891
3.28,92.73,2.892
3.28,92.76,2.893
3.28,92.79,2.894
3.28,92.83,2.895
3.29,92.86,2.896
3.29,92.89,2.897
3.29,92.93,2.898
3.29,92.96,2.899
3.29,92.99,2.900
3.29,93.03,2.901
3.29,93.06,2.902
3.30,93.09,2.903
3.30,93.13,2.903
3.30,93.16,2.904
3.30,93.19,2.905
3.30,93.23,2.906
3.31,93.26,2.907
3.31,93.29,2.908
3.31,93.33,2.909
3.31,93.36,2.910
3.31,93.39,2.911
3.31,93.43,2.912
3.31,93.46,2.913
3.32,93.50,2.914
3.32,93.53,2.916
3.32,93.56,2.917
3.32,93.59,2.918
3.32,93.63,2.919
3.33,93.66,2.921
3.33,93.69,2.922
3.33,93.73,2.923
3.33,93.76,2.924
3.33,93.79,2.925
3.33,93.83,2.926
3.34,93.86,2.928
3.34,93.89,2.931
3.34,93.93,2.934
3.34,93.96,2.937
3.34,94.00,2.939
3.34,94.03,2.940
3.34,94.06,2.941
3.35,94.10,2.942
3.35,94.13,2.943
3.35,94.16,2.943
3.35,94.19,2.944
3.35,94.23,2.945
3.36,94.26,2.946
3.36,94.29,2.947
3.36,94.33,2.948
3.36,94.36,2.950
3.36,94.40,2.951
3.36,94.43,2.953
3.36,94.46,2.956
3.37,94.50,2.961
3.37,94.53,2.966
3.37,94.56,2.969
3.37,94.60,2.970
3.37,94.63,2.971
3.38,94.66,2.973
3.38,94.70,2.974
3.38,94.73,2.975
3.38,94.76,2.975
3.38,94.80,2.976
3.38,94.83,2.977
3.39,94.86,2.978
3.39,94.90,2.979
3.39,94.93,2.980
3.39,94.96,2.983
3.39,95.00,2.987
3.39,95.03,2.994
3.39,95.06,2.998
3.40,95.10,3.003
3.40,95.13,3.008
3.40,95.16,3.013
3.40,95.20,3.017
3.40,95.23,3.019
3.41,95.26,3.020
3.41,95.30,3.021
3.41,95.33,3.023
3.41,95.36,3.024
3.41,95.40,3.025
3.41,95.43,3.026
3.41,95.46,3.027
3.42,95.50,3.028
3.42,95.53,3.029
3.42,95.56,3.032
3.42,95.60,3.036
3.42,95.63,3.039
3.43,95.66,3.044
3.43,95.70,3.048
3.43,95.73,3.050
3.43,95.76,3.052
3.43,95.80,3.054
3.43,95.83,3.056
3.44,95.86,3.058
3.44,95.90,3.061
3.44,95.93,3.066
3.44,95.96,3.073
3.44,96.00,3.081
3.44,96.03,3.090
3.44,96.06,3.100
3.45,96.10,3.110
3.45,96.13,3.118
3.45,96.16,3.129
3.45,96.20,3.137
3.45,96.23,3.144
3.46,96.26,3.151
3.46,96.30,3.156
3.46,96.33,3.159
3.46,96.36,3.164
3.46,96.40,3.167
3.46,96.43,3.171
3.46,96.46,3.177
3.47,96.50,3.185
3.47,96.53,3.200
3.47,96.56,3.216
3.47,96.60,3.239
3.47,96.63,3.259
3.48,96.66,3.270
3.48,96.70,3.282
3.48,96.73,3.296
3.48,96.76,3.308
3.48,96.80,3.317
3.48,96.83,3.325
3.49,96.86,3.334
3.49,96.90,3.349
3.49,96.93,3.368
3.49,96.96,3.387
3.49,97.00,3.409
3.49,97.03,3.432
3.49,97.06,3.460
3.50,97.10,3.500
3.50,97.13,3.554
3.50,97.16,3.605
3.50,97.20,3.644
3.50,97.23,3.689
3.51,97.26,3.739
3.51,97.30,3.786
3.51,97.33,3.830
3.51,97.36,3.864
3.51,97.40,3.913
3.51,97.43,3.961
3.51,97.46,3.992
3.52,97.50,4.034
3.52,97.53,4.084
3.52,97.56,4.112
3.52,97.59,4.162
3.52,97.63,4.225
3.53,97.66,4.286
3.53,97.69,4.344
3.53,97.73,4.407
3.53,97.76,4.497
3.53,97.80,4.590
3.53,97.83,4.670
3.54,97.86,4.766
3.54,97.89,4.863
3.54,97.93,4.918
3.54,97.96,5.021
3.54,97.99,5.124
3.54,98.03,5.228
3.54,98.06,5.339
3.55,98.09,5.452
3.55,98.13,5.573
3.55,98.16,5.729
3.55,98.19,5.879
3.55,98.23,6.048
3.56,98.26,6.244
3.56,98.29,6.453
3.56,98.32,6.663
3.56,98.36,6.866
3.56,98.39,7.133
3.56,98.42,7.425
3.56,98.45,7.733
3.57,98.49,8.081
3.57,98.52,8.456
3.57,98.55,8.876
3.57,98.59,9.326
3.57,98.62,9.839
3.58,98.65,10.412
3.58,98.68,11.023
3.58,98.71,11.707
3.58,98.75,12.466
3.58,98.78,13.277
3.58,98.81,14.206
3.59,98.84,15.225
3.59,98.87,16.372
3.59,98.90,17.614
3.59,98.93,18.991
3.59,98.96,20.505
3.59,98.99,22.131
3.59,99.02,23.860
3.60,99.05,25.746
3.60,99.08,27.706
3.60,99.11,29.754
3.60,99.14,31.826
3.60,99.17,33.887
3.61,99.20,35.896
3.61,99.23,37.752
3.61,99.25,39.390
3.61,99.28,40.729
3.61,99.31,41.669
3.61,99.33,42.125
3.61,99.36,42.069
3.62,99.39,41.517
3.62,99.42,40.477
3.62,99.45,38.998
3.62,99.48,37.162
3.62,99.51,35.120
3.63,99.54,32.956
3.63,99.57,30.756
3.63,99.60,28.558
3.63,99.63,26.398
3.63,99.67,24.252
3.63,99.70,22.135
3.64,99.73,20.081
3.64,99.77,18.138
3.64,99.80,16.294
3.64,99.84,14.643
3.64,99.87,13.223
3.64,99.91,12.044
3.64,99.94,11.095
3.65,99.98,10.363
3.65,100.02,9.820
3.65,100.05,9.366
3.65,100.09,9.006
3.65,100.12,8.694
3.66,100.16,8.427
3.66,100.19,8.130
3.66,100.23,7.923
3.66,100.26,7.713
3.66,100.30,7.575
3.66,100.34,7.436
3.66,100.37,7.334
3.67,100.41,7.214
3.67,100.44,7.105
3.67,100.48,6.985
3.67,100.51,6.897
3.67,100.55,6.812
3.68,100.58,6.688
3.68,100.62,6.596
3.68,100.65,6.486
3.68,100.69,6.404
3.68,100.72,6.323
3.68,100.76,6.252
3.69,100.79,6.169
3.69,100.83,6.107
3.69,100.86,6.041
3.69,100.90,5.964
3.69,100.93,5.909
3.69,100.97,5.848
3.69,101.00,5.811
3.70,101.04,5.759
3.70,101.07,5.719
3.70,101.11,5.679
3.70,101.14,5.623
3.70,101.18,5.564
3.71,101.21,5.501
3.71,101.25,5.476
3.71,101.28,5.421
3.71,101.31,5.367
3.71,101.35,5.317
3.71,101.38,5.300
3.71,101.42,5.260
3.72,101.45,5.235
3.72,101.49,5.211
3.72,101.52,5.155
3.72,101.56,5.106
3.72,101.59,5.061
3.73,101.62,5.025
3.73,101.66,4.960
3.73,101.69,4.909
3.73,101.73,4.828
3.73,101.76,4.765
3.73,101.80,4.726
3.74,101.83,4.697
3.74,101.87,4.650
3.74,101.90,4.627
3.74,101.93,4.600
3.74,101.97,4.595
3.74,102.00,4.588
3.74,102.04,4.576
3.75,102.07,4.568
3.75,102.10,4.537
3.75,102.14,4.497
3.75,102.17,4.495
3.75,102.20,4.480
3.76,102.24,4.438
3.76,102.27,4.395
3.76,102.31,4.351
3.76,102.34,4.340
3.76,102.38,4.321
3.76,102.41,4.308
3.76,102.44,4.291
3.77,102.48,4.258
3.77,102.51,4.207
3.77,102.55,4.167
3.77,102.58,4.146
3.77,102.61,4.130
3.78,102.65,4.092
3.78,102.68,4.069
3.78,102.72,4.066
3.78,102.75,4.069
3.78,102.78,4.068
3.78,102.82,4.075
3.79,102.85,4.062
3.79,102.88,4.012
3.79,102.92,3.983
3.79,102.95,3.944
3.79,102.99,3.956
3.79,103.02,3.935
3.79,103.06,3.918
3.80,103.09,3.904
3.80,103.12,3.891
3.80,103.16,3.889
3.80,103.19,3.891
3.80,103.22,3.884
3.81,103.26,3.851
3.81,103.29,3.831
3.81,103.32,3.789
3.81,103.36,3.774
3.81,103.39,3.773
3.81,103.43,3.776
3.81,103.46,3.768
3.82,103.49,3.754
3.82,103.53,3.746
3.82,103.56,3.740
3.82,103.59,3.739
3.82,103.63,3.724
3.83,103.66,3.702
3.83,103.69,3.675
3.83,103.73,3.640
3.83,103.76,3.617
3.83,103.80,3.603
3.83,103.83,3.595
3.84,103.86,3.589
3.84,103.90,3.582
3.84,103.93,3.582
3.84,103.96,3.583
3.84,104.00,3.587
3.84,104.03,3.590
3.84,104.06,3.594
3.85,104.10,3.594
3.85,104.13,3.592
3.85,104.17,3.579
3.85,104.20,3.569
3.85,104.23,3.561
3.86,104.27,3.554
3.86,104.30,3.543
3.86,104.33,3.529
3.86,104.37,3.524
3.86,104.40,3.522
3.86,104.43,3.519
3.86,104.47,3.517
3.87,104.50,3.514
3.87,104.54,3.505
3.87,104.57,3.492
3.87,104.60,3.481
3.87,104.64,3.472
3.88,104.67,3.467
3.88,104.70,3.460
3.88,104.74,3.458
3.88,104.77,3.455
3.88,104.80,3.452
3.88,104.84,3.449
3.89,104.87,3.446
3.89,104.90,3.442
3.89,104.94,3.436
3.89,104.97,3.427
3.89,105.00,3.419
3.89,105.04,3.413
3.89,105.07,3.408
3.90,105.10,3.405
3.90,105.14,3.402
3.90,105.17,3.401
3.90,105.20,3.399
3.90,105.24,3.398
3.91,105.27,3.397
3.91,105.31,3.397
3.91,105.34,3.396
3.91,105.37,3.393
3.91,105.41,3.389
3.91,105.44,3.385
3.91,105.47,3.382
3.92,105.51,3.380
3.92,105.54,3.379
3.92,105.57,3.377
3.92,105.61,3.375
3.92,105.64,3.375
3.93,105.67,3.374
3.93,105.71,3.372
3.93,105.74,3.371
3.93,105.77,3.370
3.93,105.81,3.369
3.93,105.84,3.368
3.94,105.88,3.367
3.94,105.91,3.366
3.94,105.94,3.365
3.94,105.97,3.364
3.94,106.01,3.362
3.94,106.04,3.360
3.94,106.07,3.359
3.95,106.11,3.356
3.95,106.14,3.355
3.95,106.18,3.354
3.95,106.21,3.352
3.95,106.24,3.350
3.96,106.28,3.348
3.96,106.31,3.347
3.96,106.34,3.345
3.96,106.38,3.342
3.96,106.41,3.340
3.96,106.44,3.338
3.96,106.48,3.337
3.97,106.51,3.336
3.97,106.54,3.332
3.97,106.58,3.330
3.97,106.61,3.329
3.97,106.64,3.329
3.98,106.68,3.329
3.98,106.71,3.328
3.98,106.74,3.327
3.98,106.78,3.327
3.98,106.81,3.326
3.98,106.84,3.325
3.99,106.88,3.324
3.99,106.91,3.322
3.99,106.94,3.318
3.99,106.98,3.316
3.99,107.01,3.315
3.99,107.05,3.314
3.99,107.08,3.313
4.00,107.11,3.311
4.00,107.14,3.310
4.00,107.18,3.308
4.00,107.21,3.307
4.00,107.25,3.306
4.01,107.28,3.305
4.01,107.31,3.305
4.01,107.35,3.304
4.01,107.38,3.302
4.01,107.41,3.302
4.01,107.45,3.301
4.01,107.48,3.300
4.02,107.51,3.299
4.02,107.55,3.299
4.02,107.58,3.297
4.02,107.61,3.296
4.02,107.65,3.295
4.03,107.68,3.295
4.03,107.71,3.294
4.03,107.75,3.294
4.03,107.78,3.293
4.03,107.81,3.292
4.03,107.85,3.292
4.04,107.88,3.291
4.04,107.91,3.291
4.04,107.95,3.290
4.04,107.98,3.290
4.04,108.01,3.289
4.04,108.05,3.289
4.04,108.08,3.288
4.05,108.11,3.287
4.05,108.15,3.286
4.05,108.18,3.285
4.05,108.21,3.284
4.05,108.25,3.283
4.06,108.28,3.283
4.06,108.31,3.282
4.06,108.35,3.281
4.06,108.38,3.280
4.06,108.42,3.280
4.06,108.45,3.279
4.06,108.48,3.279
4.07,108.51,3.278
4.07,108.55,3.277
4.07,108.58,3.276
4.07,108.62,3.275
4.07,108.65,3.274
4.08,108.68,3.273
4.08,108.71,3.272
4.08,108.75,3.272
4.08,108.78,3.271
4.08,108.81,3.271
4.08,108.85,3.270
4.09,108.88,3.270
4.09,108.91,3.269
4.09,108.95,3.269
4.09,108.98,3.268
4.09,109.02,3.267
4.09,109.05,3.267
4.09,109.08,3.266
4.10,109.12,3.266
4.10,109.15,3.266
4.10,109.18,3.265
4.10,109.22,3.265
4.10,109.25,3.264
4.11,109.28,3.264
4.11,109.32,3.263
4.11,109.35,3.263
4.11,109.38,3.262
4.11,109.42,3.261
4.11,109.45,3.260
4.11,109.48,3.260
4.12,109.52,3.259
4.12,109.55,3.259
4.12,109.58,3.258
4.12,109.62,3.258
4.12,109.65,3.257
4.13,109.68,3.257
4.13,109.72,3.257
4.13,109.75,3.257
4.13,109.78,3.257
4.13,109.82,3.256
4.13,109.85,3.256
4.14,109.88,3.256
4.14,109.92,3.255
4.14,109.95,3.255
4.14,109.98,3.254
4.14,110.02,3.253
4.14,110.05,3.253
4.14,110.08,3.252
4.15,110.12,3.252
4.15,110.15,3.251
4.15,110.18,3.251
4.15,110.22,3.251
4.15,110.25,3.250
4.16,110.28,3.250
4.16,110.32,3.250
4.16,110.35,3.249
4.16,110.38,3.249
4.16,110.42,3.249
4.16,110.45,3.249
4.16,110.48,3.249
4.17,110.52,3.249
4.17,110.55,3.249
4.17,110.58,3.248
4.17,110.62,3.248
4.17,110.65,3.247
4.18,110.69,3.247
4.18,110.72,3.246
4.18,110.75,3.246
4.18,110.79,3.246
4.18,110.82,3.245
4.18,110.85,3.245
4.19,110.89,3.244
4.19,110.92,3.244
4.19,110.95,3.244
4.19,110.98,3.243
4.19,111.02,3.243
4.19,111.05,3.242
4.19,111.09,3.242
4.20,111.12,3.241
4.20,111.15,3.241
4.20,111.19,3.241
4.20,111.22,3.241
4.20,111.25,3.240
4.21,111.29,3.240
4.21,111.32,3.240
4.21,111.35,3.239
4.21,111.39,3.239
4.21,111.42,3.239
4.21,111.45,3.239
4.21,111.49,3.239
4.22,111.52,3.239
4.22,111.55,3.239
4.22,111.59,3.239
4.22,111.62,3.238
4.22,111.65,3.238
4.23,111.69,3.238
4.23,111.72,3.237
4.23,111.75,3.237
4.23,111.79,3.237
4.23,111.82,3.237
4.23,111.85,3.237
4.24,111.89,3.237
4.24,111.92,3.237
4.24,111.95,3.237
4.24,111.99,3.237
4.24,112.02,3.237
4.24,112.05,3.237
4.24,112.09,3.237
4.25,112.12,3.237
4.25,112.15,3.236
4.25,112.19,3.236
4.25,112.22,3.236
4.25,112.25,3.236
4.26,112.29,3.236
4.26,112.32,3.236
4.26,112.35,3.236
4.26,112.39,3.236
4.26,112.42,3.236
4.26,112.45,3.236
4.26,112.49,3.236
4.27,112.52,3.236
4.27,112.55,3.236
4.27,112.59,3.236
4.27,112.62,3.236
4.27,112.65,3.236
4.28,112.69,3.236
4.28,112.72,3.235
4.28,112.75,3.235
4.28,112.79,3.235
4.28,112.82,3.235
4.28,112.86,3.235
4.29,112.89,3.234
4.29,112.92,3.234
4.29,112.95,3.234
4.29,112.99,3.234
4.29,113.02,3.234
4.29,113.06,3.234
4.30,113.09,3.234
4.30,113.12,3.235
4.30,113.16,3.235
4.30,113.19,3.235
4.30,113.22,3.235
4.30,113.26,3.235
4.30,113.29,3.235
4.31,113.32,3.235
4.31,113.36,3.235
4.31,113.39,3.235
4.31,113.42,3.235
4.31,113.46,3.235
4.31,113.49,3.235
4.32,113.52,3.234
4.32,113.56,3.234
4.32,113.59,3.234
4.32,113.62,3.234
4.32,113.66,3.235
4.33,113.69,3.235
4.33,113.72,3.235
4.33,113.76,3.235
4.33,113.79,3.235
4.33,113.82,3.235
4.33,113.86,3.235
4.34,113.89,3.235
4.34,113.92,3.235
4.34,113.96,3.235
4.34,113.99,3.235
4.34,114.02,3.235
4.34,114.06,3.235
4.35,114.09,3.236
4.35,114.12,3.236
4.35,114.16,3.236
4.35,114.19,3.237
4.35,114.22,3.237
4.35,114.26,3.237
4.35,114.29,3.237
4.36,114.32,3.237
4.36,114.36,3.237
4.36,114.39,3.237
4.36,114.42,3.237
4.36,114.46,3.237
4.36,114.49,3.238
4.37,114.52,3.239
4.37,114.56,3.239
4.37,114.59,3.239
4.37,114.63,3.240
4.37,114.66,3.239
4.38,114.69,3.239
4.38,114.72,3.239
4.38,114.76,3.239
4.38,114.79,3.238
4.38,114.82,3.238
4.38,114.86,3.238
4.39,114.89,3.238
4.39,114.92,3.238
4.39,114.96,3.238
4.39,114.99,3.238
4.39,115.02,3.239
4.39,115.06,3.238
4.40,115.09,3.238
4.40,115.12,3.238
4.40,115.16,3.238
4.40,115.19,3.238
4.40,115.22,3.239
4.40,115.26,3.239
4.40,115.29,3.239
4.41,115.32,3.239
4.41,115.36,3.240
4.41,115.39,3.240
4.41,115.43,3.240
4.41,115.46,3.240
4.41,115.49,3.241
4.42,115.52,3.241
4.42,115.56,3.241
4.42,115.59,3.241
4.42,115.62,3.242
4.42,115.66,3.242
4.43,115.69,3.242
4.43,115.73,3.242
4.43,115.76,3.242
4.43,115.79,3.242
4.43,115.83,3.242
4.43,115.86,3.242
4.44,115.89,3.243
4.44,115.93,3.243
4.44,115.96,3.243
4.44,115.99,3.243
4.44,116.03,3.243
4.44,116.06,3.243
4.45,116.09,3.243
4.45,116.13,3.243
4.45,116.16,3.244
4.45,116.19,3.244
4.45,116.23,3.244
4.45,116.26,3.244
4.45,116.29,3.244
4.46,116.33,3.244
4.46,116.36,3.244
4.46,116.39,3.244
4.46,116.43,3.243
4.46,116.46,3.243
4.46,116.49,3.243
4.47,116.53,3.243
4.47,116.56,3.243
4.47,116.59,3.244
4.47,116.63,3.244
4.47,116.66,3.245
4.48,116.69,3.245
4.48,116.73,3.246
4.48,116.76,3.246
4.48,116.79,3.247
4.48,116.83,3.247
4.48,116.86,3.247
4.49,116.89,3.247
4.49,116.93,3.247
4.49,116.96,3.248
4.49,116.99,3.248
4.49,117.03,3.249
4.49,117.06,3.249
4.50,117.09,3.249
4.50,117.13,3.250
4.50,117.16,3.250
4.50,117.19,3.250
4.50,117.23,3.251
4.50,117.26,3.251
4.50,117.29,3.251
4.51,117.33,3.251
4.51,117.36,3.251
4.51,117.39,3.251
4.51,117.43,3.251
4.51,117.46,3.251
4.51,117.49,3.252
4.52,117.53,3.252
4.52,117.56,3.253
4.52,117.59,3.254
4.52,117.63,3.255
4.52,117.66,3.256
4.53,117.69,3.256
4.53,117.73,3.256
4.53,117.76,3.257
4.53,117.79,3.257
4.53,117.83,3.257
4.53,117.86,3.258
4.54,117.89,3.258
4.54,117.93,3.258
4.54,117.96,3.258
4.54,118.00,3.259
4.54,118.03,3.259
4.54,118.06,3.259
4.55,118.10,3.260
4.55,118.13,3.260
4.55,118.16,3.260
4.55,118.20,3.260
4.55,118.23,3.260
4.55,118.26,3.261
4.55,118.30,3.261
4.56,118.33,3.262
4.56,118.36,3.262
4.56,118.40,3.262
4.56,118.43,3.263
4.56,118.46,3.263
4.56,118.50,3.263
4.57,118.53,3.264
4.57,118.56,3.264
4.57,118.60,3.264
4.57,118.63,3.264
4.57,118.66,3.265
4.58,118.70,3.265
4.58,118.73,3.266
4.58,118.76,3.266
4.58,118.80,3.267
4.58,118.83,3.267
4.58,118.86,3.268
4.59,118.90,3.269
4.59,118.93,3.270
4.59,118.96,3.270
4.59,119.00,3.271
4.59,119.03,3.271
4.59,119.06,3.271
4.60,119.10,3.271
4.60,119.13,3.271
4.60,119.16,3.271
4.60,119.20,3.271
4.60,119.23,3.271
4.60,119.26,3.271
4.60,119.30,3.271
4.61,119.33,3.271
4.61,119.36,3.271
4.61,119.40,3.272
4.61,119.43,3.272
4.61,119.46,3.273
4.61,119.50,3.273
4.62,119.53,3.274
4.62,119.56,3.275
4.62,119.60,3.275
4.62,119.63,3.276
4.62,119.66,3.277
4.63,119.70,3.277
4.63,119.73,3.278
4.63,119.76,3.279
4.63,119.80,3.279
4.63,119.83,3.280
4.63,119.86,3.280
4.64,119.90,3.280
4.64,119.93,3.281
4.64,119.97,3.281
4.64,120.00,3.281
4.64,120.03,3.281
4.64,120.06,3.282
4.65,120.10,3.282
4.65,120.13,3.283
4.65,120.16,3.283
4.65,120.20,3.283
4.65,120.23,3.283
4.65,120.26,3.283
4.65,120.30,3.283
4.66,120.33,3.284
4.66,120.36,3.284
4.66,120.40,3.285
4.66,120.43,3.286
4.66,120.46,3.286
4.66,120.50,3.287
4.67,120.53,3.288
4.67,120.57,3.289
4.67,120.60,3.289
4.67,120.63,3.290
4.67,120.67,3.290
4.68,120.70,3.290
4.68,120.73,3.291
4.68,120.77,3.291
4.68,120.80,3.292
4.68,120.83,3.292
4.68,120.87,3.292
4.69,120.90,3.293
4.69,120.93,3.293
4.69,120.97,3.294
4.69,121.00,3.294
4.69,121.03,3.295
4.69,121.07,3.295
4.70,121.10,3.295
4.70,121.13,3.295
4.70,121.17,3.295
4.70,121.20,3.295
4.70,121.23,3.295
4.70,121.27,3.296
4.70,121.30,3.296
4.71,121.33,3.297
4.71,121.37,3.298
4.71,121.40,3.298
4.71,121.43,3.299
4.71,121.47,3.300
4.71,121.50,3.301
4.72,121.53,3.302
4.72,121.57,3.302
4.72,121.60,3.303
4.72,121.63,3.303
4.72,121.67,3.304
4.73,121.70,3.304
4.73,121.73,3.305
4.73,121.77,3.305
4.73,121.80,3.305
4.73,121.83,3.305
4.73,121.87,3.305
4.74,121.90,3.306
4.74,121.93,3.306
4.74,121.97,3.307
4.74,122.00,3.307
4.74,122.03,3.308
4.74,122.07,3.309
4.75,122.10,3.309
4.75,122.13,3.310
4.75,122.17,3.310
4.75,122.20,3.311
4.75,122.23,3.311
4.75,122.27,3.312
4.75,122.30,3.313
4.76,122.33,3.313
4.76,122.37,3.314
4.76,122.40,3.314
4.76,122.43,3.315
4.76,122.47,3.315
4.76,122.50,3.315
4.77,122.53,3.315
4.77,122.57,3.316
4.77,122.60,3.316
4.77,122.63,3.316
4.77,122.67,3.317
4.78,122.70,3.317
4.78,122.74,3.318
4.78,122.77,3.318
4.78,122.80,3.319
4.78,122.83,3.319
4.78,122.87,3.320
4.79,122.90,3.320
4.79,122.93,3.321
4.79,122.97,3.322
4.79,123.00,3.322
4.79,123.04,3.323
4.79,123.07,3.324
4.80,123.10,3.325
4.80,123.14,3.325
4.80,123.17,3.325
4.80,123.20,3.325
4.80,123.24,3.325
4.80,123.27,3.325
4.80,123.30,3.326
4.81,123.34,3.326
4.81,123.37,3.326
4.81,123.40,3.326
4.81,123.44,3.326
4.81,123.47,3.326
4.81,123.50,3.326
4.82,123.54,3.327
4.82,123.57,3.327
4.82,123.60,3.327
4.82,123.64,3.328
4.82,123.67,3.328
4.83,123.70,3.329
4.83,123.74,3.329
4.83,123.77,3.330
4.83,123.80,3.331
4.83,123.84,3.331
4.83,123.87,3.332
4.84,123.90,3.333
4.84,123.94,3.333
4.84,123.97,3.333
4.84,124.00,3.334
4.84,124.04,3.334
4.84,124.07,3.334
4.85,124.10,3.335
4.85,124.14,3.336
4.85,124.17,3.336
4.85,124.20,3.337
4.85,124.24,3.338
4.85,124.27,3.339
4.85,124.30,3.340
4.86,124.34,3.341
4.86,124.37,3.341
4.86,124.40,3.342
4.86,124.44,3.342
4.86,124.47,3.342
4.86,124.50,3.343
4.87,124.54,3.343
4.87,124.57,3.344
4.87,124.60,3.344
4.87,124.64,3.345
4.87,124.67,3.346
4.88,124.70,3.346
4.88,124.74,3.347
4.88,124.77,3.347
4.88,124.80,3.348
4.88,124.84,3.348
4.88,124.87,3.349
4.89,124.90,3.349
4.89,124.94,3.350
4.89,124.97,3.350
4.89,125.00,3.351
4.89,125.04,3.352
4.89,125.07,3.353
4.90,125.11,3.353
4.90,125.14,3.353
4.90,125.17,3.354
4.90,125.20,3.354
4.90,125.24,3.355
4.90,125.27,3.355
4.90,125.30,3.355
4.91,125.34,3.356
4.91,125.37,3.356
4.91,125.40,3.356
4.91,125.44,3.356
4.91,125.47,3.357
4.91,125.50,3.357
4.92,125.54,3.358
4.92,125.57,3.359
4.92,125.61,3.360
4.92,125.64,3.360
4.92,125.67,3.361
4.93,125.70,3.362
4.93,125.74,3.362
4.93,125.77,3.362
4.93,125.81,3.363
4.93,125.84,3.363
4.93,125.87,3.364
4.94,125.90,3.364
4.94,125.94,3.365
4.94,125.97,3.365
4.94,126.01,3.366
4.94,126.04,3.366
4.94,126.07,3.367
4.95,126.11,3.367
4.95,126.14,3.368
4.95,126.17,3.368
4.95,126.21,3.369
4.95,126.24,3.370
4.95,126.27,3.370
4.95,126.31,3.370
4.96,126.34,3.371
4.96,126.37,3.371
4.96,126.41,3.372
4.96,126.44,3.372
4.96,126.47,3.372
4.96,126.51,3.373
4.97,126.54,3.373
4.97,126.57,3.374
4.97,126.61,3.374
4.97,126.64,3.375
4.97,126.67,3.375
4.98,126.71,3.376
4.98,126.74,3.377
4.98,126.77,3.378
4.98,126.81,3.378
4.98,126.84,3.379
4.98,126.87,3.379
4.99,126.91,3.380
4.99,126.94,3.380
4.99,126.97,3.380
4.99,127.01,3.381
4.99,127.04,3.381
4.99,127.07,3.382
5.00,127.11,3.382
5.00,127.14,3.383
5.00,127.17,3.383
5.00,127.21,3.384
5.00,127.24,3.385
5.00,127.27,3.385
5.00,127.31,3.386
5.01,127.34,3.386
5.01,127.37,3.387
5.01,127.41,3.388
5.01,127.44,3.388
5.01,127.47,3.389
5.01,127.51,3.390
5.02,127.54,3.390
5.02,127.57,3.391
5.02,127.61,3.391
5.02,127.64,3.392
5.02,127.67,3.392
5.03,127.71,3.392
5.03,127.74,3.393
5.03,127.77,3.393
5.03,127.81,3.393
5.03,127.84,3.393
5.03,127.87,3.393
5.04,127.91,3.394
5.04,127.94,3.394
5.04,127.97,3.394
5.04,128.01,3.395
5.04,128.04,3.396
5.04,128.07,3.396
5.05,128.11,3.397
5.05,128.14,3.397
5.05,128.17,3.398
5.05,128.21,3.398
5.05,128.24,3.399
5.05,128.27,3.399
5.05,128.31,3.400
5.06,128.34,3.400
5.06,128.38,3.401
5.06,128.41,3.402
5.06,128.44,3.403
5.06,128.48,3.403
5.06,128.51,3.404
5.07,128.54,3.404
5.07,128.58,3.405
5.07,128.61,3.405
5.07,128.64,3.405
5.07,128.68,3.406
5.08,128.71,3.406
5.08,128.74,3.406
5.08,128.78,3.407
5.08,128.81,3.407
5.08,128.84,3.408
5.08,128.87,3.409
5.09,128.91,3.410
5.09,128.94,3.411
5.09,128.98,3.412
5.09,129.01,3.413
5.09,129.04,3.413
5.09,129.08,3.413
5.10,129.11,3.414
5.10,129.14,3.414
5.10,129.18,3.415
5.10,129.21,3.415
5.10,129.24,3.415
5.10,129.28,3.416
5.10,129.31,3.416
5.11,129.34,3.416
5.11,129.38,3.417
5.11,129.41,3.417
5.11,129.44,3.417
5.11,129.48,3.418
5.11,129.51,3.418
5.12,129.54,3.419
5.12,129.58,3.420
5.12,129.61,3.420
5.12,129.64,3.421
5.12,129.68,3.421
5.13,129.71,3.422
5.13,129.74,3.423
5.13,129.78,3.423
5.13,129.81,3.423
5.13,129.84,3.424
5.13,129.88,3.425
5.14,129.91,3.425
5.14,129.94,3.426
5.14,129.98,3.427
5.14,130.01,3.427
5.14,130.04,3.428
5.14,130.08,3.429
5.15,130.11,3.430
5.15,130.14,3.430
5.15,130.18,3.430
5.15,130.21,3.431
5.15,130.24,3.431
5.15,130.28,3.431
5.15,130.31,3.432
5.16,130.34,3.432
5.16,130.38,3.432
5.16,130.41,3.433
5.16,130.44,3.433
5.16,130.48,3.434
5.16,130.51,3.434
5.17,130.54,3.435
5.17,130.58,3.435
5.17,130.61,3.436
5.17,130.64,3.436
5.17,130.68,3.437
5.18,130.71,3.438
5.18,130.75,3.438
5.18,130.78,3.438
5.18,130.81,3.439
5.18,130.85,3.439
5.18,130.88,3.439
5.19,130.91,3.440
5.19,130.95,3.440
5.19,130.98,3.440
5.19,131.01,3.440
5.19,131.05,3.441
5.19,131.08,3.441
5.20,131.11,3.441
5.20,131.15,3.442
5.20,131.18,3.443
5.20,131.21,3.444
5.20,131.25,3.447
5.20,131.28,3.449
5.20,131.31,3.450
5.21,131.35,3.451
5.21,131.38,3.452
5.21,131.41,3.452
5.21,131.45,3.453
5.21,131.48,3.453
5.21,131.51,3.453
5.22,131.55,3.454
5.22,131.58,3.454
5.22,131.61,3.454
5.22,131.65,3.455
5.22,131.68,3.455
5.23,131.71,3.455
5.23,131.75,3.456
5.23,131.78,3.456
5.23,131.81,3.457
5.23,131.85,3.458
5.23,131.88,3.458
5.24,131.91,3.459
5.24,131.95,3.460
5.24,131.98,3.461
5.24,132.01,3.461
5.24,132.05,3.462
5.24,132.08,3.462
5.25,132.11,3.462
5.25,132.15,3.462
5.25,132.18,3.463
5.25,132.21,3.463
5.25,132.25,3.463
5.25,132.28,3.464
5.25,132.31,3.465
5.26,132.35,3.466
5.26,132.38,3.467
5.26,132.41,3.467
5.26,132.45,3.468
5.26,132.48,3.469
5.26,132.51,3.469
5.27,132.55,3.469
5.27,132.58,3.469
5.27,132.61,3.469
5.27,132.65,3.470
5.27,132.68,3.470
5.28,132.71,3.470
5.28,132.75,3.471
5.28,132.78,3.471
5.28,132.81,3.472
5.28,132.85,3.472
5.28,132.88,3.472
5.29,132.91,3.473
5.29,132.95,3.473
5.29,132.98,3.473
5.29,133.01,3.474
5.29,133.05,3.474
5.29,133.08,3.474
5.30,133.11,3.474
5.30,133.15,3.475
5.30,133.18,3.475
5.30,133.22,3.476
5.30,133.25,3.476
5.30,133.28,3.477
5.30,133.32,3.477
5.31,133.35,3.478
5.31,133.38,3.478
5.31,133.41,3.478
5.31,133.45,3.478
5.31,133.48,3.479
5.31,133.52,3.480
5.32,133.55,3.481
5.32,133.58,3.482
5.32,133.61,3.483
5.32,133.65,3.483
5.32,133.68,3.484
5.33,133.71,3.484
5.33,133.75,3.484
5.33,133.78,3.485
5.33,133.82,3.485
5.33,133.85,3.485
5.33,133.88,3.485
5.34,133.92,3.486
5.34,133.95,3.486
5.34,133.98,3.487
5.34,134.02,3.487
5.34,134.05,3.487
5.34,134.08,3.487
5.35,134.12,3.487
5.35,134.15,3.487
5.35,134.18,3.488
5.35,134.22,3.488
5.35,134.25,3.489
5.35,134.28,3.490
5.35,134.32,3.492
5.36,134.35,3.492
5.36,134.38,3.493
5.36,134.42,3.494
5.36,134.45,3.495
5.36,134.48,3.495
5.36,134.52,3.496
5.37,134.55,3.496
5.37,134.58,3.497
5.37,134.62,3.497
5.37,134.65,3.497
5.37,134.68,3.498
5.38,134.72,3.498
5.38,134.75,3.498
5.38,134.78,3.499
5.38,134.82,3.499
5.38,134.85,3.500
5.38,134.88,3.500
5.39,134.92,3.501
5.39,134.95,3.502
5.39,134.98,3.502
5.39,135.02,3.502
5.39,135.05,3.503
5.39,135.08,3.503
5.40,135.12,3.504
5.40,135.15,3.504
5.40,135.18,3.505
5.40,135.22,3.505
5.40,135.25,3.506
5.40,135.28,3.506
5.40,135.32,3.507
5.41,135.35,3.507
5.41,135.38,3.508
5.41,135.42,3.508
5.41,135.45,3.509
5.41,135.48,3.509
5.41,135.52,3.509
5.42,135.55,3.510
5.42,135.58,3.510
5.42,135.62,3.510
5.42,135.65,3.510
5.42,135.68,3.511
5.43,135.72,3.511
5.43,135.75,3.511
5.43,135.78,3.512
5.43,135.82,3.512
5.43,135.85,3.513
5.43,135.88,3.513
5.44,135.92,3.514
5.44,135.95,3.515
5.44,135.98,3.515
5.44,136.02,3.516
5.44,136.05,3.516
5.44,136.08,3.517
5.45,136.12,3.517
5.45,136.15,3.517
5.45,136.18,3.518
5.45,136.22,3.518
5.45,136.25,3.519
5.45,136.28,3.520
5.45,136.32,3.521
5.46,136.35,3.522
5.46,136.38,3.522
5.46,136.42,3.523
5.46,136.45,3.523
5.46,136.48,3.524
5.46,136.52,3.525
5.47,136.55,3.525
5.47,136.58,3.526
5.47,136.62,3.526
5.47,136.65,3.527
5.47,136.68,3.527
5.48,136.72,3.528
5.48,136.75,3.528
5.48,136.78,3.528
5.48,136.82,3.529
5.48,136.85,3.529
5.48,136.88,3.529
5.49,136.92,3.529
5.49,136.95,3.529
5.49,136.99,3.530
5.49,137.02,3.530
5.49,137.05,3.530
5.49,137.09,3.531
5.50,137.12,3.531
5.50,137.15,3.533
5.50,137.19,3.533
5.50,137.22,3.535
5.50,137.25,3.536
5.50,137.29,3.536
5.50,137.32,3.537
5.51,137.35,3.538
5.51,137.39,3.539
5.51,137.42,3.539
5.51,137.45,3.540
5.51,137.49,3.540
5.51,137.52,3.541
5.52,137.55,3.541
5.52,137.59,3.542
5.52,137.62,3.542
5.52,137.65,3.542
5.52,137.69,3.543
5.53,137.72,3.543
5.53,137.75,3.544
5.53,137.79,3.544
5.53,137.82,3.545
5.53,137.85,3.545
5.53,137.89,3.546
5.54,137.92,3.546
5.54,137.95,3.547
5.54,137.99,3.548
5.54,138.02,3.548
5.54,138.05,3.549
5.54,138.09,3.549
5.55,138.12,3.549
5.55,138.16,3.550
5.55,138.19,3.550
5.55,138.22,3.551
5.55,138.25,3.551
5.55,138.29,3.552
5.55,138.32,3.552
5.56,138.36,3.552
5.56,138.39,3.553
5.56,138.42,3.553
5.56,138.45,3.553
5.56,138.49,3.554
5.56,138.52,3.554
5.57,138.55,3.554
5.57,138.59,3.555
5.57,138.62,3.556
5.57,138.65,3.556
5.57,138.69,3.557
5.58,138.72,3.558
5.58,138.75,3.560
5.58,138.79,3.562
5.58,138.82,3.563
5.58,138.86,3.564
5.58,138.89,3.565
5.59,138.92,3.565
5.59,138.95,3.565
5.59,138.99,3.566
5.59,139.02,3.565
5.59,139.06,3.565
5.59,139.09,3.565
5.60,139.12,3.564
5.60,139.16,3.565
5.60,139.19,3.565
5.60,139.22,3.566
5.60,139.26,3.567
5.60,139.29,3.567
5.60,139.32,3.568
5.61,139.36,3.569
5.61,139.39,3.569
5.61,139.42,3.570
5.61,139.46,3.571
5.61,139.49,3.572
5.61,139.52,3.572
5.62,139.56,3.573
5.62,139.59,3.573
5.62,139.62,3.574
5.62,139.66,3.575
5.62,139.69,3.575
5.63,139.72,3.576
5.63,139.76,3.576
5.63,139.79,3.577
5.63,139.82,3.577
5.63,139.86,3.578
5.63,139.89,3.578
5.64,139.92,3.579
5.64,139.96,3.579
5.64,139.99,3.580
5.64,140.02,3.580
5.64,140.06,3.581
5.64,140.09,3.581
5.65,140.12,3.582
5.65,140.16,3.583
5.65,140.19,3.584
5.65,140.22,3.584
5.65,140.26,3.585
5.65,140.29,3.585
5.65,140.32,3.586
5.66,140.36,3.586
5.66,140.39,3.586
5.66,140.42,3.587
5.66,140.46,3.587
5.66,140.49,3.588
5.66,140.52,3.589
5.67,140.56,3.590
5.67,140.59,3.591
5.67,140.62,3.591
5.67,140.66,3.592
5.67,140.69,3.593
5.68,140.72,3.593
5.68,140.76,3.594
5.68,140.79,3.594
5.68,140.82,3.595
5.68,140.86,3.596
5.68,140.89,3.596
5.69,140.92,3.597
5.69,140.96,3.598
5.69,140.99,3.599
5.69,141.02,3.599
5.69,141.06,3.600
5.69,141.09,3.601
5.70,141.12,3.601
5.70,141.16,3.601
5.70,141.19,3.602
5.70,141.22,3.602
5.70,141.26,3.602
5.70,141.29,3.602
5.70,141.32,3.602
5.71,141.36,3.603
5.71,141.39,3.603
5.71,141.42,3.604
5.71,141.46,3.604
5.71,141.49,3.605
5.71,141.53,3.605
5.72,141.56,3.606
5.72,141.59,3.607
5.72,141.63,3.607
5.72,141.66,3.608
5.72,141.69,3.608
5.73,141.73,3.609
5.73,141.76,3.610
5.73,141.79,3.610
5.73,141.83,3.611
5.73,141.86,3.611
5.73,141.89,3.612
5.74,141.93,3.612
5.74,141.96,3.613
5.74,141.99,3.613
5.74,142.03,3.614
5.74,142.06,3.614
5.74,142.09,3.615
5.75,142.13,3.615
5.75,142.16,3.616
5.75,142.19,3.617
5.75,142.23,3.618
5.75,142.26,3.619
5.75,142.29,3.620
5.75,142.33,3.620
5.76,142.36,3.621
5.76,142.39,3.621
5.76,142.43,3.621
5.76,142.46,3.622
5.76,142.49,3.622
5.76,142.53,3.623
5.77,142.56,3.623
5.77,142.59,3.624
5.77,142.63,3.625
5.77,142.66,3.625
5.77,142.69,3.626
5.78,142.73,3.627
5.78,142.76,3.628
5.78,142.79,3.628
5.78,142.83,3.629
5.78,142.86,3.629
5.78,142.89,3.630
5.79,142.93,3.630
5.79,142.96,3.630
5.79,142.99,3.630
5.79,143.03,3.631
5.79,143.06,3.631
5.79,143.09,3.632
5.80,143.13,3.633
5.80,143.16,3.633
5.80,143.20,3.634
5.80,143.23,3.634
5.80,143.26,3.635
5.80,143.29,3.635
5.80,143.33,3.636
5.81,143.36,3.636
5.81,143.39,3.636
5.81,143.43,3.636
5.81,143.46,3.637
5.81,143.49,3.637
5.81,143.53,3.638
5.82,143.56,3.639
5.82,143.59,3.639
5.82,143.63,3.640
5.82,143.66,3.640
5.82,143.69,3.641
5.83,143.73,3.641
5.83,143.76,3.642
5.83,143.80,3.642
5.83,143.83,3.643
5.83,143.86,3.643
5.83,143.90,3.643
5.84,143.93,3.644
5.84,143.96,3.644
5.84,144.00,3.645
5.84,144.03,3.646
5.84,144.06,3.647
5.84,144.10,3.647
5.85,144.13,3.648
5.85,144.16,3.649
5.85,144.20,3.649
5.85,144.23,3.650
5.85,144.26,3.651
5.85,144.30,3.651
5.85,144.33,3.652
5.86,144.36,3.653
5.86,144.40,3.653
5.86,144.43,3.654
5.86,144.46,3.655
5.86,144.50,3.655
5.86,144.53,3.656
5.87,144.56,3.656
5.87,144.60,3.656
5.87,144.63,3.656
5.87,144.66,3.657
5.87,144.70,3.657
5.88,144.73,3.657
5.88,144.76,3.658
5.88,144.80,3.659
5.88,144.83,3.660
5.88,144.86,3.660
5.88,144.90,3.661
5.89,144.93,3.662
5.89,144.96,3.663
5.89,145.00,3.664
5.89,145.03,3.664
5.89,145.06,3.665
5.89,145.10,3.666
5.90,145.13,3.667
5.90,145.17,3.667
5.90,145.20,3.668
5.90,145.23,3.669
5.90,145.26,3.669
5.90,145.30,3.670
5.90,145.33,3.670
5.91,145.36,3.670
5.91,145.40,3.670
5.91,145.43,3.670
5.91,145.46,3.671
5.91,145.50,3.671
5.91,145.53,3.671
5.92,145.56,3.672
5.92,145.60,3.672
5.92,145.63,3.672
5.92,145.66,3.673
5.92,145.70,3.673
5.93,145.73,3.674
5.93,145.77,3.674
5.93,145.80,3.675
5.93,145.83,3.676
5.93,145.86,3.676
5.93,145.90,3.677
5.94,145.93,3.679
5.94,145.96,3.681
5.94,146.00,3.683
5.94,146.03,3.685
5.94,146.06,
5.94,146.10,
5.95,146.13,
5.95,146.17,
5.95,146.20,
5.95,146.23,
5.95,146.27,
5.95,146.30,
5.95,146.33,
5.96,146.37,
5.96,146.40,
5.96,146.43,
5.96,146.47,
5.96,146.50,
5.96,146.53,
5.97,146.56,
5.97,146.60,
5.97,146.63,
5.97,146.67,
5.97,146.70,
5.98,146.73,
5.98,146.77,
5.98,146.80,
5.98,146.83,
5.98,146.87,
5.98,146.90,
5.99,146.93,
5.99,146.97,
5.99,147.00,
5.99,147.03,
5.99,,
5.99,,
6.00,,
6.00,,
6.00,,

