Filename,Benzoic_Acid_DSC_Zoom_Meeting_CHM343
Instrument name,DSC2A-00468 (192.168.1.100)
Operator,Zoom Meeting Students
rundate,2/6/2025
Sample name,Benzoic_Acid_DSC_Zoom_Meeting_CHM343
proceduresegments,Data Off ; Equilibrate 30.00 °C; Data On ; Ramp 20.00 °C/min to 150.00 °C
[File Parameters]
Run date,2/6/2025 5:26:05 PM
Trios version,5.1.1.46572
Original File Name,C:\ProgramData\TA Instruments\TRIOS\Data\2025_01_06_Benzoic_Acid_DSC_Zoom_Meeting_CHM343.tri
Current File Name,\\Mac\Home\Desktop\DSC_CHM343\Benzoic_Acid_DSC_Zoom_Meeting_CHM343.tri
[Procedure]
Procedure Name,Benzoic Acid
Sample Name,Benzoic_Acid_DSC_Zoom_Meeting_CHM343
Sample Mass,2.94 mg
Reference Sample Mass,0 mg
Pan Mass,54.23 mg
Pan Number,20
Reference Pan Mass,54 mg
Reference Pan Number,19
Pan Type,Aluminum
Comments,"Al Hermetic Sealed Pan, with ref Al pan"
Project Name,
Operator,Zoom Meeting Students
Test,Custom
Unload Max Temperature,30
Unload Min Temperature,30
Load Max Temperature,30
Load Min Temperature,30
Stop on Gas Flow Error,Yes
[Signal List]
Signal #1,Time (min)
Signal #2,Temperature (°C)
Signal #3,Heat Flow (mW)
Signal #4,Delta T (µV)
Signal #5,Delta Tzero (µV)
Signal #6,Tzero Temperature (°C)
Signal #7,Cell Purge (mL/min)
Signal #8,Heater Temp (°C)
Signal #9,Power Delivered (W)
Signal #10,Reference Junction Temperature (°C)
Signal #11,Flange Temperature (°C)
Signal #12,Heat Flow Phase (rad)
Signal #13,Total Heat Capacity (J/°C)
Signal #14,Heat Capacity (J/°C)
[Configuration]
Company Name,ASU
Instrument Name,DSC2A-00468
Instrument Type,DSC2500
Serial Number,DSC2A-00468
IP,192.168.1.100
Location of Instrument,MRRC
DisplayType,Unknown
Sample Interval ,0.1 s/pt
Selected Heat Flow,T4P
Exotherm Direction,Down
Cell Serial,DRC2-00792
Lid Type,Standard
Cooler,RCS 90
Leave Cooler on at End of Sequence,On
Gas 2,Nitrogen
Gas Selected,Channel 1
Flow Rate,50 mL/min
Secondary Purge,On
Licensed Heat Flow,Heat Flow T4P
Modulation Licensed,Yes
[Versions]
Common IDD Version,1
Cortex Version,VER 2.10.2.31
Driver,5.0.0.6
GDM Version,1.0.3.3
TouchscreenVersion,1.0.0.16145
FEP Version,1.2.1.21
FEP Bootloader,2.0.0.5
AutoSampler Version,2.1.1.26
Auto Sampler Bootloader,2.0.0.5
FCM Version,1.1.0.3
FCM Bootloader,2.0.0.5
[Experiment Logs]
Experiment Log Entry # 1,Data On set to 0
Experiment Log Entry # 3,Equilibrate Segment 30 (C) Started
Experiment Log Entry # 5,Air Cool is off.
Experiment Log Entry # 7,Data On set to 1
Experiment Log Entry # 9,Ramp Segment 20 C/min to 150 Started
[Method Log]
Method Log Entry # 1,Data Off
Method Log Entry # 2,Equilibrate 30 °C
Method Log Entry # 3,Data On
Method Log Entry # 4,(Ramp 4599) Ramp 20 °C/minute to 150 °C
Cell Serial,DRC2-00792
[T1 Calibration]
Slope,-0.008529666
Offset,9.636258
Initial Temperature,98.23
GUID,f8bfdadc-4977-4fdf-ba6d-0ba9134940c3
[TZero Calibration]
Date Applied,11/29/2022 4:06:13 PM
Description,From -89.059 °C to 396.009 °C at 20.000°C/min
Gas Type,Nitrogen
Pan Type,None
Source Files 1,C:\Users\yargerlab\Desktop\DSC Data\General\TZero_calibration_11_29_22_2nd(2).tri
Source Files 2,C:\Users\yargerlab\Desktop\DSC Data\General\TZero_calibration_11_29_22_2nd(3).tri
Delta T Offset,13.05235
Delta T Slope,-0.007271007
Delta T0 Offset,-13.69128
Delta T0 Slope,0.06063341
[Temperature Calibration]
Date Applied,11/29/2022 7:12:28 PM
Description,From 106.590 °C to 186.590 °C at 10.000°C/min
Gas Type,Nitrogen
Pan Type,Tzero Aluminum Hermetic
Source Files 1,C:\Users\yargerlab\Desktop\DSC Data\General\Indium(6).tri
Measured 1,157.391
Known 1,156.598
[Cell Constant Calibration]
Date Applied,11/29/2022 7:12:29 PM
Description,From 106.590 °C to 186.590 °C at 10.000°C/min
Gas Type,Nitrogen
Pan Type,Tzero Aluminum Hermetic
Source Files 1,C:\Users\yargerlab\Desktop\DSC Data\General\Indium(6).tri
T4P KCell,1.006051
Onset Slope,63.26126 mW/°C
[Direct Cp Calibration]
Date Applied,11/30/2022 11:04:51 AM
Description,From -79.983 °C to 298.409 °C at 10.000°C/min
Gas Type,Nitrogen
Pan Type,Tzero Aluminum Hermetic
Source Files 1,C:\Users\yargerlab\Desktop\DSC Data\General\Sapphire_Heat_Capacity_11_30_22.tri
[Rev Cp Calibration]
Date Applied,11/30/2022 1:58:51 PM
Description,From -79.996 °C to 292.812 °C at 3.000°C/min
Gas Type,Nitrogen
Pan Type,Tzero Aluminum Hermetic
Source Files 1,C:\Users\yargerlab\Desktop\DSC Data\General\Sapphire_MDSC_Calibration_11_30_22.tri
[step]
Ramp 20.00 °C/min to 150.00 °C
Time,Temperature,Heat Flow (Normalized)
min,°C,W/g
0.00,30.03,-0.045
0.00,30.03,-0.045
0.00,30.03,-0.045
0.01,30.03,-0.045
0.01,30.03,-0.044
0.01,30.03,-0.044
0.01,30.03,-0.044
0.01,30.03,-0.044
0.01,30.03,-0.044
0.01,30.03,-0.043
0.02,30.04,-0.043
0.02,30.04,-0.043
0.02,30.04,-0.043
0.02,30.04,-0.043
0.02,30.04,-0.042
0.03,30.04,-0.042
0.03,30.04,-0.042
0.03,30.04,-0.042
0.03,30.04,-0.042
0.03,30.04,-0.041
0.03,30.04,-0.041
0.03,30.05,-0.040
0.04,30.05,-0.039
0.04,30.05,-0.038
0.04,30.05,-0.037
0.04,30.05,-0.036
0.04,30.05,-0.034
0.05,30.06,-0.032
0.05,30.06,-0.030
0.05,30.06,-0.028
0.05,30.06,-0.025
0.05,30.07,-0.022
0.05,30.07,-0.019
0.05,30.07,-0.015
0.06,30.08,-0.011
0.06,30.08,-0.007
0.06,30.08,-0.002
0.06,30.09,0.002
0.06,30.09,0.005
0.07,30.10,0.010
0.07,30.10,0.013
0.07,30.11,0.018
0.07,30.11,0.021
0.07,30.12,0.026
0.07,30.12,0.030
0.08,30.13,0.035
0.08,30.14,0.040
0.08,30.14,0.045
0.08,30.15,0.050
0.08,30.16,0.055
0.08,30.17,0.060
0.08,30.18,0.066
0.09,30.19,0.072
0.09,30.19,0.078
0.09,30.20,0.084
0.09,30.21,0.090
0.09,30.22,0.097
0.09,30.23,0.103
0.10,30.24,0.109
0.10,30.26,0.116
0.10,30.27,0.122
0.10,30.28,0.128
0.10,30.29,0.134
0.11,30.31,0.141
0.11,30.32,0.147
0.11,30.33,0.154
0.11,30.35,0.161
0.11,30.36,0.168
0.11,30.37,0.175
0.12,30.39,0.183
0.12,30.41,0.189
0.12,30.42,0.195
0.12,30.44,0.202
0.12,30.45,0.207
0.12,30.47,0.214
0.13,30.49,0.220
0.13,30.51,0.226
0.13,30.52,0.233
0.13,30.54,0.238
0.13,30.56,0.245
0.13,30.58,0.252
0.14,30.60,0.258
0.14,30.62,0.264
0.14,30.64,0.270
0.14,30.66,0.275
0.14,30.68,0.281
0.14,30.70,0.287
0.14,30.72,0.293
0.15,30.74,0.299
0.15,30.76,0.304
0.15,30.78,0.308
0.15,30.80,0.313
0.15,30.83,0.318
0.16,30.85,0.323
0.16,30.87,0.328
0.16,30.89,0.333
0.16,30.92,0.337
0.16,30.94,0.342
0.16,30.96,0.348
0.16,30.99,0.353
0.17,31.01,0.358
0.17,31.04,0.362
0.17,31.06,0.367
0.17,31.08,0.371
0.17,31.11,0.376
0.18,31.13,0.380
0.18,31.16,0.384
0.18,31.18,0.387
0.18,31.21,0.390
0.18,31.23,0.393
0.18,31.26,0.396
0.19,31.29,0.399
0.19,31.31,0.402
0.19,31.34,0.405
0.19,31.36,0.409
0.19,31.39,0.413
0.19,31.42,0.417
0.19,31.44,0.420
0.20,31.47,0.423
0.20,31.50,0.426
0.20,31.52,0.429
0.20,31.55,0.432
0.20,31.58,0.434
0.21,31.60,0.436
0.21,31.63,0.438
0.21,31.66,0.440
0.21,31.69,0.442
0.21,31.71,0.444
0.21,31.74,0.445
0.21,31.77,0.448
0.22,31.80,0.450
0.22,31.83,0.453
0.22,31.85,0.455
0.22,31.88,0.458
0.22,31.91,0.460
0.23,31.94,0.464
0.23,31.97,0.466
0.23,31.99,0.468
0.23,32.02,0.470
0.23,32.05,0.471
0.23,32.08,0.472
0.24,32.11,0.474
0.24,32.14,0.475
0.24,32.17,0.477
0.24,32.20,0.478
0.24,32.23,0.479
0.24,32.25,0.481
0.24,32.28,0.482
0.25,32.31,0.484
0.25,32.34,0.486
0.25,32.37,0.488
0.25,32.40,0.489
0.25,32.43,0.490
0.26,32.46,0.492
0.26,32.49,0.494
0.26,32.52,0.495
0.26,32.55,0.498
0.26,32.58,0.500
0.26,32.61,0.502
0.26,32.64,0.503
0.27,32.67,0.504
0.27,32.70,0.505
0.27,32.73,0.506
0.27,32.76,0.508
0.27,32.79,0.510
0.28,32.82,0.512
0.28,32.85,0.512
0.28,32.88,0.513
0.28,32.91,0.515
0.28,32.94,0.516
0.28,32.97,0.516
0.29,33.00,0.516
0.29,33.03,0.516
0.29,33.06,0.518
0.29,33.09,0.519
0.29,33.12,0.521
0.29,33.15,0.523
0.30,33.18,0.524
0.30,33.21,0.526
0.30,33.24,0.528
0.30,33.27,0.529
0.30,33.30,0.530
0.30,33.34,0.531
0.30,33.37,0.531
0.31,33.40,0.532
0.31,33.43,0.534
0.31,33.46,0.535
0.31,33.49,0.536
0.31,33.52,0.536
0.31,33.55,0.536
0.32,33.58,0.537
0.32,33.61,0.539
0.32,33.65,0.540
0.32,33.68,0.542
0.32,33.71,0.543
0.33,33.74,0.543
0.33,33.77,0.544
0.33,33.80,0.544
0.33,33.83,0.545
0.33,33.86,0.544
0.33,33.90,0.544
0.34,33.93,0.544
0.34,33.96,0.545
0.34,33.99,0.546
0.34,34.02,0.547
0.34,34.05,0.548
0.34,34.09,0.550
0.35,34.12,0.551
0.35,34.15,0.553
0.35,34.18,0.553
0.35,34.21,0.554
0.35,34.24,0.554
0.35,34.28,0.555
0.35,34.31,0.556
0.36,34.34,0.556
0.36,34.37,0.556
0.36,34.40,0.557
0.36,34.43,0.558
0.36,34.47,0.558
0.36,34.50,0.558
0.37,34.53,0.559
0.37,34.56,0.559
0.37,34.59,0.559
0.37,34.63,0.559
0.37,34.66,0.560
0.38,34.69,0.561
0.38,34.72,0.561
0.38,34.75,0.562
0.38,34.79,0.564
0.38,34.82,0.565
0.38,34.85,0.565
0.39,34.88,0.566
0.39,34.92,0.566
0.39,34.95,0.566
0.39,34.98,0.566
0.39,35.01,0.566
0.39,35.04,0.566
0.40,35.08,0.566
0.40,35.11,0.566
0.40,35.14,0.567
0.40,35.17,0.568
0.40,35.20,0.568
0.40,35.24,0.569
0.40,35.27,0.569
0.41,35.30,0.569
0.41,35.33,0.570
0.41,35.37,0.570
0.41,35.40,0.570
0.41,35.43,0.570
0.41,35.46,0.570
0.42,35.49,0.571
0.42,35.53,0.571
0.42,35.56,0.571
0.42,35.59,0.571
0.42,35.62,0.571
0.43,35.66,0.572
0.43,35.69,0.572
0.43,35.72,0.572
0.43,35.75,0.573
0.43,35.79,0.573
0.43,35.82,0.574
0.44,35.85,0.574
0.44,35.88,0.574
0.44,35.91,0.575
0.44,35.95,0.575
0.44,35.98,0.575
0.44,36.01,0.575
0.45,36.05,0.575
0.45,36.08,0.575
0.45,36.11,0.575
0.45,36.14,0.575
0.45,36.18,0.575
0.45,36.21,0.576
0.45,36.24,0.576
0.46,36.27,0.577
0.46,36.31,0.577
0.46,36.34,0.578
0.46,36.37,0.578
0.46,36.40,0.579
0.46,36.44,0.579
0.47,36.47,0.580
0.47,36.50,0.580
0.47,36.53,0.580
0.47,36.57,0.580
0.47,36.60,0.580
0.48,36.63,0.580
0.48,36.66,0.580
0.48,36.70,0.581
0.48,36.73,0.581
0.48,36.76,0.581
0.48,36.80,0.581
0.49,36.83,0.582
0.49,36.86,0.582
0.49,36.89,0.582
0.49,36.93,0.582
0.49,36.96,0.582
0.49,36.99,0.583
0.50,37.02,0.583
0.50,37.06,0.583
0.50,37.09,0.583
0.50,37.12,0.583
0.50,37.15,0.583
0.50,37.19,0.583
0.50,37.22,0.583
0.51,37.25,0.584
0.51,37.29,0.584
0.51,37.32,0.584
0.51,37.35,0.584
0.51,37.38,0.584
0.51,37.42,0.584
0.52,37.45,0.584
0.52,37.48,0.584
0.52,37.51,0.584
0.52,37.55,0.584
0.52,37.58,0.585
0.53,37.61,0.585
0.53,37.65,0.585
0.53,37.68,0.585
0.53,37.71,0.585
0.53,37.74,0.585
0.53,37.78,0.585
0.53,37.81,0.585
0.54,37.84,0.585
0.54,37.87,0.586
0.54,37.91,0.586
0.54,37.94,0.586
0.54,37.97,0.586
0.55,38.01,0.586
0.55,38.04,0.587
0.55,38.07,0.587
0.55,38.11,0.587
0.55,38.14,0.587
0.55,38.17,0.587
0.55,38.20,0.587
0.56,38.24,0.587
0.56,38.27,0.587
0.56,38.30,0.587
0.56,38.33,0.587
0.56,38.37,0.587
0.57,38.40,0.588
0.57,38.43,0.588
0.57,38.47,0.588
0.57,38.50,0.588
0.57,38.53,0.588
0.57,38.57,0.588
0.58,38.60,0.588
0.58,38.63,0.588
0.58,38.66,0.588
0.58,38.70,0.588
0.58,38.73,0.588
0.58,38.76,0.588
0.58,38.80,0.588
0.59,38.83,0.588
0.59,38.86,0.588
0.59,38.90,0.589
0.59,38.93,0.589
0.59,38.96,0.589
0.60,38.99,0.589
0.60,39.03,0.589
0.60,39.06,0.589
0.60,39.09,0.589
0.60,39.12,0.590
0.60,39.16,0.590
0.60,39.19,0.590
0.61,39.22,0.590
0.61,39.26,0.590
0.61,39.29,0.590
0.61,39.32,0.590
0.61,39.35,0.590
0.62,39.39,0.590
0.62,39.42,0.590
0.62,39.45,0.590
0.62,39.49,0.590
0.62,39.52,0.590
0.62,39.55,0.590
0.63,39.58,0.590
0.63,39.62,0.590
0.63,39.65,0.591
0.63,39.68,0.591
0.63,39.72,0.591
0.63,39.75,0.591
0.63,39.78,0.591
0.64,39.82,0.592
0.64,39.85,0.592
0.64,39.88,0.592
0.64,39.92,0.592
0.64,39.95,0.592
0.65,39.98,0.592
0.65,40.01,0.592
0.65,40.05,0.592
0.65,40.08,0.592
0.65,40.11,0.592
0.65,40.15,0.592
0.65,40.18,0.592
0.66,40.21,0.592
0.66,40.24,0.593
0.66,40.28,0.593
0.66,40.31,0.593
0.66,40.34,0.593
0.67,40.38,0.593
0.67,40.41,0.593
0.67,40.44,0.593
0.67,40.48,0.593
0.67,40.51,0.593
0.67,40.54,0.593
0.68,40.57,0.593
0.68,40.61,0.593
0.68,40.64,0.593
0.68,40.67,0.593
0.68,40.71,0.593
0.68,40.74,0.593
0.68,40.77,0.594
0.69,40.81,0.594
0.69,40.84,0.594
0.69,40.87,0.594
0.69,40.90,0.594
0.69,40.94,0.594
0.70,40.97,0.594
0.70,41.00,0.594
0.70,41.04,0.594
0.70,41.07,0.594
0.70,41.10,0.595
0.70,41.14,0.595
0.70,41.17,0.595
0.71,41.20,0.595
0.71,41.24,0.595
0.71,41.27,0.595
0.71,41.30,0.595
0.71,41.33,0.595
0.72,41.37,0.595
0.72,41.40,0.595
0.72,41.43,0.595
0.72,41.47,0.595
0.72,41.50,0.595
0.72,41.53,0.595
0.73,41.57,0.595
0.73,41.60,0.595
0.73,41.63,0.595
0.73,41.66,0.596
0.73,41.70,0.596
0.73,41.73,0.596
0.73,41.76,0.596
0.74,41.80,0.596
0.74,41.83,0.596
0.74,41.86,0.596
0.74,41.90,0.596
0.74,41.93,0.596
0.75,41.96,0.596
0.75,42.00,0.596
0.75,42.03,0.596
0.75,42.06,0.596
0.75,42.09,0.596
0.75,42.13,0.596
0.75,42.16,0.596
0.76,42.19,0.597
0.76,42.23,0.597
0.76,42.26,0.597
0.76,42.29,0.597
0.76,42.33,0.597
0.77,42.36,0.597
0.77,42.39,0.597
0.77,42.42,0.597
0.77,42.46,0.597
0.77,42.49,0.597
0.77,42.52,0.597
0.78,42.56,0.598
0.78,42.59,0.598
0.78,42.62,0.598
0.78,42.66,0.598
0.78,42.69,0.598
0.78,42.72,0.598
0.78,42.76,0.598
0.79,42.79,0.598
0.79,42.82,0.599
0.79,42.86,0.599
0.79,42.89,0.599
0.79,42.92,0.599
0.80,42.96,0.599
0.80,42.99,0.599
0.80,43.02,0.599
0.80,43.05,0.599
0.80,43.09,0.599
0.80,43.12,0.599
0.80,43.15,0.599
0.81,43.19,0.599
0.81,43.22,0.599
0.81,43.25,0.599
0.81,43.29,0.599
0.81,43.32,0.599
0.82,43.35,0.599
0.82,43.39,0.600
0.82,43.42,0.600
0.82,43.45,0.600
0.82,43.49,0.600
0.82,43.52,0.600
0.83,43.55,0.600
0.83,43.58,0.600
0.83,43.62,0.600
0.83,43.65,0.600
0.83,43.68,0.600
0.83,43.72,0.600
0.83,43.75,0.601
0.84,43.78,0.601
0.84,43.82,0.601
0.84,43.85,0.601
0.84,43.88,0.601
0.84,43.91,0.601
0.85,43.95,0.601
0.85,43.98,0.601
0.85,44.02,0.601
0.85,44.05,0.601
0.85,44.08,0.601
0.85,44.11,0.601
0.85,44.15,0.601
0.86,44.18,0.601
0.86,44.21,0.601
0.86,44.25,0.601
0.86,44.28,0.602
0.86,44.31,0.602
0.87,44.35,0.602
0.87,44.38,0.602
0.87,44.41,0.602
0.87,44.45,0.602
0.87,44.48,0.602
0.87,44.51,0.602
0.88,44.55,0.602
0.88,44.58,0.602
0.88,44.61,0.602
0.88,44.64,0.602
0.88,44.68,0.602
0.88,44.71,0.603
0.88,44.74,0.603
0.89,44.78,0.603
0.89,44.81,0.603
0.89,44.84,0.603
0.89,44.88,0.603
0.89,44.91,0.603
0.90,44.94,0.603
0.90,44.98,0.603
0.90,45.01,0.603
0.90,45.04,0.603
0.90,45.08,0.603
0.90,45.11,0.603
0.90,45.14,0.603
0.91,45.18,0.603
0.91,45.21,0.603
0.91,45.24,0.603
0.91,45.27,0.604
0.91,45.31,0.604
0.92,45.34,0.604
0.92,45.37,0.604
0.92,45.41,0.604
0.92,45.44,0.604
0.92,45.47,0.604
0.92,45.51,0.604
0.93,45.54,0.604
0.93,45.57,0.604
0.93,45.61,0.604
0.93,45.64,0.604
0.93,45.67,0.604
0.93,45.71,0.604
0.93,45.74,0.605
0.94,45.77,0.605
0.94,45.81,0.605
0.94,45.84,0.605
0.94,45.87,0.605
0.94,45.91,0.605
0.95,45.94,0.605
0.95,45.97,0.605
0.95,46.01,0.605
0.95,46.04,0.605
0.95,46.07,0.605
0.95,46.10,0.606
0.95,46.14,0.606
0.96,46.17,0.606
0.96,46.20,0.606
0.96,46.24,0.606
0.96,46.27,0.606
0.96,46.30,0.606
0.97,46.34,0.606
0.97,46.37,0.606
0.97,46.40,0.606
0.97,46.44,0.606
0.97,46.47,0.606
0.97,46.50,0.606
0.98,46.54,0.606
0.98,46.57,0.607
0.98,46.60,0.607
0.98,46.64,0.607
0.98,46.67,0.607
0.98,46.70,0.607
0.98,46.74,0.607
0.99,46.77,0.607
0.99,46.80,0.607
0.99,46.83,0.607
0.99,46.87,0.607
0.99,46.90,0.607
1.00,46.94,0.607
1.00,46.97,0.608
1.00,47.00,0.608
1.00,47.03,0.608
1.00,47.07,0.608
1.00,47.10,0.608
1.00,47.13,0.608
1.01,47.17,0.608
1.01,47.20,0.608
1.01,47.23,0.608
1.01,47.27,0.609
1.01,47.30,0.609
1.02,47.33,0.609
1.02,47.37,0.609
1.02,47.40,0.609
1.02,47.43,0.609
1.02,47.47,0.609
1.02,47.50,0.609
1.03,47.53,0.609
1.03,47.57,0.609
1.03,47.60,0.609
1.03,47.63,0.609
1.03,47.67,0.609
1.03,47.70,0.609
1.03,47.73,0.609
1.04,47.77,0.609
1.04,47.80,0.609
1.04,47.83,0.609
1.04,47.87,0.610
1.04,47.90,0.610
1.05,47.93,0.610
1.05,47.97,0.610
1.05,48.00,0.610
1.05,48.03,0.610
1.05,48.06,0.610
1.05,48.10,0.610
1.05,48.13,0.610
1.06,48.16,0.610
1.06,48.20,0.610
1.06,48.23,0.610
1.06,48.26,0.610
1.06,48.30,0.610
1.07,48.33,0.610
1.07,48.36,0.610
1.07,48.40,0.610
1.07,48.43,0.611
1.07,48.46,0.611
1.07,48.50,0.611
1.08,48.53,0.611
1.08,48.56,0.611
1.08,48.60,0.611
1.08,48.63,0.611
1.08,48.66,0.611
1.08,48.70,0.611
1.08,48.73,0.611
1.09,48.76,0.612
1.09,48.80,0.612
1.09,48.83,0.612
1.09,48.86,0.612
1.09,48.89,0.612
1.09,48.93,0.612
1.10,48.96,0.612
1.10,49.00,0.612
1.10,49.03,0.612
1.10,49.06,0.612
1.10,49.09,0.612
1.11,49.13,0.612
1.11,49.16,0.612
1.11,49.19,0.612
1.11,49.23,0.612
1.11,49.26,0.613
1.11,49.29,0.613
1.12,49.33,0.613
1.12,49.36,0.613
1.12,49.39,0.613
1.12,49.43,0.613
1.12,49.46,0.613
1.12,49.49,0.613
1.13,49.53,0.613
1.13,49.56,0.613
1.13,49.59,0.613
1.13,49.63,0.613
1.13,49.66,0.613
1.13,49.69,0.613
1.13,49.73,0.613
1.14,49.76,0.613
1.14,49.79,0.614
1.14,49.83,0.614
1.14,49.86,0.614
1.14,49.89,0.614
1.14,49.93,0.614
1.15,49.96,0.614
1.15,49.99,0.614
1.15,50.03,0.614
1.15,50.06,0.614
1.15,50.09,0.614
1.16,50.13,0.614
1.16,50.16,0.614
1.16,50.19,0.615
1.16,50.22,0.615
1.16,50.26,0.615
1.16,50.29,0.615
1.17,50.32,0.615
1.17,50.36,0.615
1.17,50.39,0.615
1.17,50.43,0.615
1.17,50.46,0.616
1.17,50.49,0.616
1.18,50.53,0.616
1.18,50.56,0.616
1.18,50.59,0.616
1.18,50.62,0.616
1.18,50.66,0.616
1.18,50.69,0.616
1.18,50.72,0.616
1.19,50.76,0.616
1.19,50.79,0.616
1.19,50.82,0.616
1.19,50.86,0.616
1.19,50.89,0.616
1.19,50.92,0.616
1.20,50.96,0.616
1.20,50.99,0.616
1.20,51.02,0.616
1.20,51.06,0.616
1.20,51.09,0.616
1.21,51.12,0.617
1.21,51.16,0.617
1.21,51.19,0.617
1.21,51.22,0.617
1.21,51.26,0.617
1.21,51.29,0.617
1.22,51.32,0.617
1.22,51.36,0.617
1.22,51.39,0.617
1.22,51.42,0.617
1.22,51.46,0.617
1.22,51.49,0.617
1.23,51.52,0.617
1.23,51.56,0.617
1.23,51.59,0.617
1.23,51.62,0.618
1.23,51.66,0.618
1.23,51.69,0.618
1.23,51.72,0.618
1.24,51.76,0.618
1.24,51.79,0.618
1.24,51.82,0.618
1.24,51.86,0.618
1.24,51.89,0.618
1.24,51.92,0.618
1.25,51.96,0.618
1.25,51.99,0.618
1.25,52.02,0.618
1.25,52.06,0.618
1.25,52.09,0.618
1.26,52.12,0.618
1.26,52.16,0.619
1.26,52.19,0.619
1.26,52.22,0.619
1.26,52.26,0.619
1.26,52.29,0.619
1.27,52.32,0.619
1.27,52.36,0.619
1.27,52.39,0.619
1.27,52.42,0.619
1.27,52.46,0.619
1.27,52.49,0.619
1.28,52.52,0.619
1.28,52.56,0.619
1.28,52.59,0.619
1.28,52.62,0.619
1.28,52.65,0.619
1.28,52.69,0.619
1.28,52.72,0.619
1.29,52.76,0.619
1.29,52.79,0.620
1.29,52.82,0.620
1.29,52.85,0.620
1.29,52.89,0.620
1.29,52.92,0.620
1.30,52.96,0.620
1.30,52.99,0.620
1.30,53.02,0.620
1.30,53.06,0.620
1.30,53.09,0.620
1.31,53.12,0.620
1.31,53.16,0.620
1.31,53.19,0.620
1.31,53.22,0.620
1.31,53.26,0.620
1.31,53.29,0.620
1.32,53.32,0.620
1.32,53.36,0.620
1.32,53.39,0.621
1.32,53.42,0.621
1.32,53.46,0.621
1.32,53.49,0.621
1.33,53.52,0.621
1.33,53.56,0.621
1.33,53.59,0.621
1.33,53.62,0.621
1.33,53.65,0.621
1.33,53.69,0.621
1.33,53.72,0.621
1.34,53.75,0.621
1.34,53.79,0.621
1.34,53.82,0.621
1.34,53.86,0.621
1.34,53.89,0.621
1.34,53.92,0.621
1.35,53.95,0.621
1.35,53.99,0.622
1.35,54.02,0.622
1.35,54.05,0.622
1.35,54.09,0.622
1.36,54.12,0.622
1.36,54.15,0.622
1.36,54.19,0.622
1.36,54.22,0.622
1.36,54.25,0.622
1.36,54.29,0.622
1.37,54.32,0.622
1.37,54.35,0.622
1.37,54.39,0.622
1.37,54.42,0.622
1.37,54.45,0.622
1.37,54.49,0.622
1.38,54.52,0.622
1.38,54.55,0.622
1.38,54.59,0.623
1.38,54.62,0.623
1.38,54.65,0.623
1.38,54.69,0.623
1.38,54.72,0.623
1.39,54.75,0.623
1.39,54.79,0.623
1.39,54.82,0.623
1.39,54.85,0.623
1.39,54.89,0.623
1.39,54.92,0.623
1.40,54.95,0.623
1.40,54.99,0.623
1.40,55.02,0.623
1.40,55.05,0.623
1.40,55.09,0.623
1.41,55.12,0.623
1.41,55.15,0.624
1.41,55.19,0.624
1.41,55.22,0.624
1.41,55.25,0.624
1.41,55.29,0.624
1.42,55.32,0.624
1.42,55.35,0.624
1.42,55.39,0.624
1.42,55.42,0.624
1.42,55.45,0.624
1.42,55.49,0.624
1.43,55.52,0.624
1.43,55.55,0.624
1.43,55.59,0.624
1.43,55.62,0.624
1.43,55.65,0.624
1.43,55.69,0.624
1.43,55.72,0.624
1.44,55.75,0.625
1.44,55.79,0.625
1.44,55.82,0.625
1.44,55.85,0.625
1.44,55.89,0.625
1.44,55.92,0.625
1.45,55.95,0.625
1.45,55.99,0.625
1.45,56.02,0.625
1.45,56.05,0.625
1.45,56.09,0.625
1.46,56.12,0.625
1.46,56.15,0.625
1.46,56.19,0.625
1.46,56.22,0.625
1.46,56.25,0.625
1.46,56.29,0.626
1.47,56.32,0.626
1.47,56.35,0.626
1.47,56.38,0.626
1.47,56.42,0.626
1.47,56.45,0.626
1.47,56.49,0.626
1.48,56.52,0.626
1.48,56.55,0.626
1.48,56.59,0.626
1.48,56.62,0.626
1.48,56.65,0.626
1.48,56.69,0.626
1.48,56.72,0.626
1.49,56.75,0.626
1.49,56.79,0.626
1.49,56.82,0.626
1.49,56.85,0.626
1.49,56.89,0.626
1.49,56.92,0.626
1.50,56.95,0.627
1.50,56.99,0.627
1.50,57.02,0.627
1.50,57.05,0.627
1.50,57.09,0.627
1.51,57.12,0.627
1.51,57.15,0.627
1.51,57.19,0.627
1.51,57.22,0.627
1.51,57.25,0.627
1.51,57.29,0.627
1.52,57.32,0.627
1.52,57.35,0.627
1.52,57.39,0.627
1.52,57.42,0.628
1.52,57.45,0.628
1.52,57.49,0.628
1.53,57.52,0.628
1.53,57.55,0.628
1.53,57.59,0.628
1.53,57.62,0.628
1.53,57.65,0.628
1.53,57.69,0.628
1.53,57.72,0.628
1.54,57.75,0.628
1.54,57.79,0.628
1.54,57.82,0.628
1.54,57.85,0.628
1.54,57.89,0.628
1.54,57.92,0.628
1.55,57.95,0.628
1.55,57.99,0.629
1.55,58.02,0.629
1.55,58.05,0.629
1.55,58.09,0.629
1.56,58.12,0.629
1.56,58.15,0.629
1.56,58.19,0.629
1.56,58.22,0.629
1.56,58.25,0.629
1.56,58.29,0.629
1.57,58.32,0.629
1.57,58.35,0.629
1.57,58.39,0.629
1.57,58.42,0.629
1.57,58.45,0.629
1.57,58.49,0.629
1.58,58.52,0.629
1.58,58.55,0.630
1.58,58.59,0.630
1.58,58.62,0.630
1.58,58.65,0.630
1.58,58.69,0.630
1.58,58.72,0.630
1.59,58.75,0.630
1.59,58.79,0.630
1.59,58.82,0.630
1.59,58.85,0.630
1.59,58.89,0.630
1.59,58.92,0.630
1.60,58.95,0.630
1.60,58.99,0.630
1.60,59.02,0.630
1.60,59.05,0.630
1.60,59.09,0.630
1.61,59.12,0.630
1.61,59.15,0.631
1.61,59.19,0.631
1.61,59.22,0.631
1.61,59.25,0.631
1.61,59.29,0.631
1.62,59.32,0.631
1.62,59.35,0.631
1.62,59.39,0.631
1.62,59.42,0.631
1.62,59.45,0.631
1.62,59.49,0.631
1.63,59.52,0.631
1.63,59.55,0.632
1.63,59.59,0.632
1.63,59.62,0.632
1.63,59.65,0.632
1.63,59.69,0.632
1.63,59.72,0.632
1.64,59.75,0.632
1.64,59.79,0.632
1.64,59.82,0.632
1.64,59.85,0.632
1.64,59.89,0.632
1.64,59.92,0.632
1.65,59.95,0.632
1.65,59.99,0.632
1.65,60.02,0.632
1.65,60.05,0.632
1.65,60.09,0.632
1.66,60.12,0.633
1.66,60.15,0.633
1.66,60.19,0.633
1.66,60.22,0.633
1.66,60.25,0.633
1.66,60.29,0.633
1.67,60.32,0.633
1.67,60.35,0.633
1.67,60.39,0.633
1.67,60.42,0.633
1.67,60.45,0.633
1.67,60.49,0.633
1.68,60.52,0.633
1.68,60.55,0.633
1.68,60.59,0.633
1.68,60.62,0.633
1.68,60.65,0.633
1.68,60.69,0.633
1.68,60.72,0.633
1.69,60.75,0.634
1.69,60.79,0.634
1.69,60.82,0.634
1.69,60.86,0.634
1.69,60.89,0.634
1.69,60.92,0.634
1.70,60.95,0.634
1.70,60.99,0.634
1.70,61.02,0.634
1.70,61.05,0.634
1.70,61.09,0.634
1.71,61.12,0.634
1.71,61.15,0.634
1.71,61.19,0.634
1.71,61.22,0.634
1.71,61.25,0.634
1.71,61.29,0.634
1.72,61.32,0.634
1.72,61.35,0.634
1.72,61.39,0.634
1.72,61.42,0.634
1.72,61.45,0.634
1.72,61.49,0.635
1.73,61.52,0.635
1.73,61.55,0.635
1.73,61.59,0.635
1.73,61.62,0.635
1.73,61.65,0.635
1.73,61.69,0.635
1.73,61.72,0.635
1.74,61.75,0.635
1.74,61.79,0.635
1.74,61.82,0.635
1.74,61.85,0.635
1.74,61.89,0.635
1.74,61.92,0.635
1.75,61.95,0.635
1.75,61.99,0.635
1.75,62.02,0.635
1.75,62.05,0.636
1.75,62.09,0.636
1.76,62.12,0.636
1.76,62.15,0.636
1.76,62.19,0.636
1.76,62.22,0.636
1.76,62.25,0.636
1.76,62.29,0.636
1.77,62.32,0.636
1.77,62.35,0.636
1.77,62.39,0.636
1.77,62.42,0.636
1.77,62.45,0.636
1.77,62.49,0.636
1.78,62.52,0.636
1.78,62.55,0.636
1.78,62.59,0.636
1.78,62.62,0.636
1.78,62.65,0.636
1.78,62.69,0.637
1.78,62.72,0.637
1.79,62.75,0.637
1.79,62.79,0.637
1.79,62.82,0.637
1.79,62.85,0.637
1.79,62.89,0.637
1.79,62.92,0.637
1.80,62.95,0.637
1.80,62.99,0.637
1.80,63.02,0.637
1.80,63.05,0.637
1.80,63.09,0.637
1.81,63.12,0.637
1.81,63.15,0.637
1.81,63.19,0.637
1.81,63.22,0.637
1.81,63.25,0.637
1.81,63.29,0.637
1.82,63.32,0.637
1.82,63.35,0.637
1.82,63.39,0.638
1.82,63.42,0.638
1.82,63.46,0.638
1.82,63.49,0.638
1.83,63.52,0.638
1.83,63.56,0.638
1.83,63.59,0.638
1.83,63.62,0.638
1.83,63.65,0.638
1.83,63.69,0.638
1.83,63.72,0.638
1.84,63.75,0.638
1.84,63.79,0.638
1.84,63.82,0.638
1.84,63.86,0.638
1.84,63.89,0.638
1.84,63.92,0.638
1.85,63.96,0.638
1.85,63.99,0.638
1.85,64.02,0.639
1.85,64.06,0.639
1.85,64.09,0.639
1.86,64.12,0.639
1.86,64.15,0.639
1.86,64.19,0.639
1.86,64.22,0.639
1.86,64.26,0.639
1.86,64.29,0.639
1.87,64.32,0.639
1.87,64.36,0.639
1.87,64.39,0.639
1.87,64.42,0.639
1.87,64.46,0.639
1.87,64.49,0.639
1.88,64.52,0.639
1.88,64.56,0.639
1.88,64.59,0.640
1.88,64.62,0.640
1.88,64.66,0.640
1.88,64.69,0.640
1.88,64.72,0.640
1.89,64.76,0.640
1.89,64.79,0.640
1.89,64.82,0.640
1.89,64.86,0.640
1.89,64.89,0.640
1.89,64.92,0.640
1.90,64.96,0.640
1.90,64.99,0.640
1.90,65.02,0.640
1.90,65.06,0.640
1.90,65.09,0.640
1.91,65.12,0.640
1.91,65.16,0.640
1.91,65.19,0.640
1.91,65.22,0.641
1.91,65.26,0.641
1.91,65.29,0.641
1.92,65.32,0.641
1.92,65.36,0.641
1.92,65.39,0.641
1.92,65.42,0.641
1.92,65.46,0.641
1.92,65.49,0.641
1.93,65.52,0.641
1.93,65.56,0.641
1.93,65.59,0.641
1.93,65.62,0.641
1.93,65.66,0.641
1.93,65.69,0.641
1.93,65.72,0.642
1.94,65.76,0.642
1.94,65.79,0.642
1.94,65.82,0.642
1.94,65.86,0.642
1.94,65.89,0.642
1.94,65.92,0.642
1.95,65.96,0.642
1.95,65.99,0.642
1.95,66.02,0.642
1.95,66.06,0.642
1.95,66.09,0.642
1.96,66.12,0.642
1.96,66.16,0.642
1.96,66.19,0.642
1.96,66.22,0.642
1.96,66.26,0.642
1.96,66.29,0.642
1.97,66.32,0.642
1.97,66.36,0.642
1.97,66.39,0.642
1.97,66.42,0.643
1.97,66.46,0.643
1.97,66.49,0.643
1.98,66.52,0.643
1.98,66.56,0.643
1.98,66.59,0.643
1.98,66.62,0.643
1.98,66.66,0.643
1.98,66.69,0.643
1.98,66.73,0.643
1.99,66.76,0.643
1.99,66.79,0.643
1.99,66.83,0.643
1.99,66.86,0.643
1.99,66.89,0.643
1.99,66.92,0.643
2.00,66.96,0.643
2.00,66.99,0.643
2.00,67.03,0.643
2.00,67.06,0.644
2.00,67.09,0.644
2.01,67.13,0.644
2.01,67.16,0.644
2.01,67.19,0.644
2.01,67.23,0.644
2.01,67.26,0.644
2.01,67.29,0.644
2.02,67.33,0.644
2.02,67.36,0.644
2.02,67.39,0.644
2.02,67.43,0.644
2.02,67.46,0.644
2.02,67.49,0.644
2.03,67.53,0.644
2.03,67.56,0.644
2.03,67.59,0.644
2.03,67.63,0.644
2.03,67.66,0.645
2.03,67.69,0.645
2.03,67.73,0.645
2.04,67.76,0.645
2.04,67.79,0.645
2.04,67.83,0.645
2.04,67.86,0.645
2.04,67.89,0.645
2.04,67.93,0.645
2.05,67.96,0.645
2.05,67.99,0.645
2.05,68.02,0.645
2.05,68.06,0.645
2.05,68.09,0.645
2.06,68.13,0.645
2.06,68.16,0.645
2.06,68.19,0.645
2.06,68.23,0.645
2.06,68.26,0.645
2.06,68.29,0.645
2.07,68.33,0.646
2.07,68.36,0.646
2.07,68.39,0.646
2.07,68.43,0.646
2.07,68.46,0.646
2.07,68.49,0.646
2.08,68.53,0.646
2.08,68.56,0.646
2.08,68.59,0.646
2.08,68.63,0.646
2.08,68.66,0.646
2.08,68.69,0.646
2.08,68.73,0.646
2.09,68.76,0.646
2.09,68.79,0.646
2.09,68.83,0.646
2.09,68.86,0.646
2.09,68.89,0.646
2.09,68.93,0.647
2.10,68.96,0.647
2.10,68.99,0.647
2.10,69.03,0.647
2.10,69.06,0.647
2.10,69.09,0.647
2.11,69.13,0.647
2.11,69.16,0.647
2.11,69.19,0.647
2.11,69.23,0.647
2.11,69.26,0.647
2.11,69.29,0.647
2.12,69.33,0.647
2.12,69.36,0.647
2.12,69.39,0.647
2.12,69.43,0.647
2.12,69.46,0.647
2.12,69.49,0.647
2.13,69.53,0.647
2.13,69.56,0.647
2.13,69.59,0.648
2.13,69.63,0.648
2.13,69.66,0.648
2.13,69.69,0.648
2.14,69.73,0.648
2.14,69.76,0.648
2.14,69.79,0.648
2.14,69.83,0.648
2.14,69.86,0.648
2.14,69.89,0.648
2.14,69.93,0.648
2.15,69.96,0.648
2.15,69.99,0.648
2.15,70.03,0.648
2.15,70.06,0.648
2.15,70.10,0.648
2.16,70.13,0.648
2.16,70.16,0.648
2.16,70.19,0.648
2.16,70.23,0.648
2.16,70.26,0.649
2.16,70.30,0.649
2.16,70.33,0.649
2.17,70.36,0.649
2.17,70.39,0.649
2.17,70.43,0.649
2.17,70.46,0.649
2.17,70.50,0.649
2.18,70.53,0.649
2.18,70.56,0.649
2.18,70.60,0.649
2.18,70.63,0.649
2.18,70.66,0.649
2.18,70.70,0.649
2.19,70.73,0.649
2.19,70.76,0.650
2.19,70.80,0.650
2.19,70.83,0.650
2.19,70.86,0.650
2.19,70.90,0.650
2.19,70.93,0.650
2.20,70.96,0.650
2.20,71.00,0.650
2.20,71.03,0.650
2.20,71.06,0.650
2.20,71.10,0.650
2.21,71.13,0.650
2.21,71.16,0.650
2.21,71.20,0.650
2.21,71.23,0.650
2.21,71.26,0.650
2.21,71.30,0.650
2.21,71.33,0.650
2.22,71.36,0.650
2.22,71.40,0.650
2.22,71.43,0.650
2.22,71.46,0.651
2.22,71.50,0.651
2.23,71.53,0.651
2.23,71.56,0.651
2.23,71.60,0.651
2.23,71.63,0.651
2.23,71.66,0.651
2.23,71.70,0.651
2.24,71.73,0.651
2.24,71.76,0.651
2.24,71.80,0.651
2.24,71.83,0.651
2.24,71.86,0.651
2.24,71.90,0.651
2.24,71.93,0.651
2.25,71.96,0.651
2.25,72.00,0.651
2.25,72.03,0.651
2.25,72.06,0.651
2.25,72.10,0.651
2.26,72.13,0.652
2.26,72.16,0.652
2.26,72.20,0.652
2.26,72.23,0.652
2.26,72.26,0.652
2.26,72.30,0.652
2.26,72.33,0.652
2.27,72.36,0.652
2.27,72.40,0.652
2.27,72.43,0.652
2.27,72.47,0.652
2.27,72.50,0.652
2.28,72.53,0.652
2.28,72.57,0.652
2.28,72.60,0.652
2.28,72.63,0.652
2.28,72.66,0.652
2.28,72.70,0.652
2.29,72.73,0.652
2.29,72.77,0.653
2.29,72.80,0.653
2.29,72.83,0.653
2.29,72.87,0.653
2.29,72.90,0.653
2.29,72.93,0.653
2.30,72.97,0.653
2.30,73.00,0.653
2.30,73.03,0.653
2.30,73.07,0.653
2.30,73.10,0.653
2.31,73.13,0.653
2.31,73.17,0.653
2.31,73.20,0.653
2.31,73.23,0.653
2.31,73.27,0.653
2.31,73.30,0.653
2.31,73.33,0.654
2.32,73.37,0.654
2.32,73.40,0.654
2.32,73.43,0.654
2.32,73.47,0.654
2.32,73.50,0.654
2.33,73.53,0.654
2.33,73.57,0.654
2.33,73.60,0.654
2.33,73.63,0.654
2.33,73.67,0.654
2.33,73.70,0.654
2.34,73.73,0.654
2.34,73.77,0.654
2.34,73.80,0.654
2.34,73.83,0.654
2.34,73.87,0.654
2.34,73.90,0.654
2.34,73.93,0.654
2.35,73.97,0.654
2.35,74.00,0.654
2.35,74.03,0.654
2.35,74.07,0.654
2.35,74.10,0.655
2.36,74.13,0.655
2.36,74.17,0.655
2.36,74.20,0.655
2.36,74.23,0.655
2.36,74.27,0.655
2.36,74.30,0.655
2.36,74.33,0.655
2.37,74.37,0.655
2.37,74.40,0.655
2.37,74.43,0.655
2.37,74.47,0.655
2.37,74.50,0.655
2.38,74.53,0.655
2.38,74.57,0.655
2.38,74.60,0.655
2.38,74.63,0.655
2.38,74.67,0.655
2.38,74.70,0.655
2.39,74.73,0.655
2.39,74.77,0.655
2.39,74.80,0.656
2.39,74.83,0.656
2.39,74.87,0.656
2.39,74.90,0.656
2.39,74.93,0.656
2.40,74.97,0.656
2.40,75.00,0.656
2.40,75.03,0.656
2.40,75.07,0.656
2.40,75.10,0.656
2.41,75.13,0.656
2.41,75.17,0.656
2.41,75.20,0.656
2.41,75.24,0.656
2.41,75.27,0.656
2.41,75.30,0.656
2.41,75.33,0.656
2.42,75.37,0.656
2.42,75.40,0.656
2.42,75.43,0.656
2.42,75.47,0.656
2.42,75.50,0.656
2.43,75.53,0.657
2.43,75.57,0.657
2.43,75.60,0.657
2.43,75.64,0.657
2.43,75.67,0.657
2.43,75.70,0.657
2.44,75.74,0.657
2.44,75.77,0.657
2.44,75.80,0.657
2.44,75.84,0.657
2.44,75.87,0.657
2.44,75.90,0.657
2.44,75.94,0.657
2.45,75.97,0.657
2.45,76.00,0.657
2.45,76.04,0.657
2.45,76.07,0.657
2.45,76.10,0.657
2.46,76.14,0.657
2.46,76.17,0.658
2.46,76.20,0.658
2.46,76.24,0.658
2.46,76.27,0.658
2.46,76.30,0.658
2.46,76.34,0.658
2.47,76.37,0.658
2.47,76.40,0.658
2.47,76.44,0.658
2.47,76.47,0.658
2.47,76.50,0.658
2.48,76.54,0.658
2.48,76.57,0.658
2.48,76.60,0.658
2.48,76.64,0.658
2.48,76.67,0.658
2.48,76.70,0.658
2.49,76.74,0.658
2.49,76.77,0.658
2.49,76.80,0.658
2.49,76.84,0.658
2.49,76.87,0.658
2.49,76.90,0.659
2.49,76.94,0.659
2.50,76.97,0.659
2.50,77.00,0.659
2.50,77.04,0.659
2.50,77.07,0.659
2.50,77.10,0.659
2.51,77.14,0.659
2.51,77.17,0.659
2.51,77.21,0.659
2.51,77.24,0.659
2.51,77.27,0.659
2.51,77.31,0.659
2.51,77.34,0.659
2.52,77.37,0.659
2.52,77.41,0.659
2.52,77.44,0.660
2.52,77.47,0.660
2.52,77.51,0.660
2.53,77.54,0.660
2.53,77.57,0.660
2.53,77.61,0.660
2.53,77.64,0.660
2.53,77.67,0.660
2.53,77.71,0.660
2.54,77.74,0.660
2.54,77.77,0.660
2.54,77.81,0.660
2.54,77.84,0.660
2.54,77.87,0.660
2.54,77.91,0.660
2.54,77.94,0.660
2.55,77.97,0.660
2.55,78.01,0.660
2.55,78.04,0.660
2.55,78.07,0.660
2.55,78.11,0.660
2.56,78.14,0.660
2.56,78.17,0.660
2.56,78.21,0.660
2.56,78.24,0.661
2.56,78.27,0.661
2.56,78.31,0.661
2.56,78.34,0.661
2.57,78.37,0.661
2.57,78.41,0.661
2.57,78.44,0.661
2.57,78.47,0.661
2.57,78.51,0.661
2.58,78.54,0.661
2.58,78.57,0.661
2.58,78.61,0.661
2.58,78.64,0.661
2.58,78.67,0.661
2.58,78.71,0.661
2.59,78.74,0.661
2.59,78.77,0.661
2.59,78.81,0.661
2.59,78.84,0.661
2.59,78.87,0.661
2.59,78.91,0.661
2.59,78.94,0.661
2.60,78.97,0.661
2.60,79.01,0.661
2.60,79.04,0.662
2.60,79.07,0.662
2.60,79.11,0.662
2.61,79.14,0.662
2.61,79.17,0.662
2.61,79.21,0.662
2.61,79.24,0.662
2.61,79.27,0.662
2.61,79.31,0.662
2.61,79.34,0.662
2.62,79.37,0.662
2.62,79.41,0.662
2.62,79.44,0.662
2.62,79.48,0.662
2.62,79.51,0.662
2.63,79.54,0.662
2.63,79.57,0.662
2.63,79.61,0.662
2.63,79.64,0.662
2.63,79.67,0.662
2.63,79.71,0.662
2.64,79.74,0.662
2.64,79.78,0.662
2.64,79.81,0.662
2.64,79.84,0.662
2.64,79.88,0.663
2.64,79.91,0.663
2.64,79.94,0.663
2.65,79.98,0.663
2.65,80.01,0.663
2.65,80.04,0.663
2.65,80.07,0.663
2.65,80.11,0.663
2.66,80.14,0.663
2.66,80.18,0.663
2.66,80.21,0.663
2.66,80.24,0.663
2.66,80.28,0.663
2.66,80.31,0.663
2.66,80.34,0.663
2.67,80.38,0.663
2.67,80.41,0.663
2.67,80.44,0.663
2.67,80.48,0.663
2.67,80.51,0.663
2.68,80.54,0.663
2.68,80.58,0.663
2.68,80.61,0.663
2.68,80.64,0.663
2.68,80.68,0.663
2.68,80.71,0.663
2.69,80.74,0.664
2.69,80.78,0.664
2.69,80.81,0.664
2.69,80.84,0.664
2.69,80.88,0.664
2.69,80.91,0.664
2.69,80.94,0.664
2.70,80.98,0.664
2.70,81.01,0.664
2.70,81.04,0.664
2.70,81.08,0.664
2.70,81.11,0.664
2.71,81.14,0.664
2.71,81.18,0.664
2.71,81.21,0.664
2.71,81.24,0.664
2.71,81.28,0.664
2.71,81.31,0.664
2.71,81.34,0.664
2.72,81.38,0.664
2.72,81.41,0.664
2.72,81.44,0.664
2.72,81.48,0.664
2.72,81.51,0.665
2.73,81.54,0.665
2.73,81.58,0.665
2.73,81.61,0.665
2.73,81.64,0.665
2.73,81.68,0.665
2.73,81.71,0.665
2.74,81.74,0.665
2.74,81.78,0.665
2.74,81.81,0.665
2.74,81.84,0.665
2.74,81.88,0.665
2.74,81.91,0.665
2.74,81.94,0.665
2.75,81.98,0.665
2.75,82.01,0.665
2.75,82.05,0.665
2.75,82.08,0.665
2.75,82.11,0.665
2.76,82.14,0.665
2.76,82.18,0.665
2.76,82.21,0.665
2.76,82.24,0.665
2.76,82.28,0.665
2.76,82.31,0.665
2.76,82.35,0.665
2.77,82.38,0.665
2.77,82.41,0.665
2.77,82.45,0.665
2.77,82.48,0.665
2.77,82.51,0.665
2.78,82.55,0.665
2.78,82.58,0.665
2.78,82.61,0.666
2.78,82.65,0.666
2.78,82.68,0.666
2.78,82.71,0.666
2.79,82.75,0.666
2.79,82.78,0.666
2.79,82.81,0.666
2.79,82.85,0.666
2.79,82.88,0.666
2.79,82.91,0.666
2.79,82.95,0.666
2.80,82.98,0.666
2.80,83.01,0.666
2.80,83.05,0.666
2.80,83.08,0.666
2.80,83.11,0.666
2.81,83.15,0.666
2.81,83.18,0.666
2.81,83.21,0.666
2.81,83.25,0.666
2.81,83.28,0.666
2.81,83.31,0.666
2.81,83.35,0.666
2.82,83.38,0.666
2.82,83.41,0.666
2.82,83.45,0.666
2.82,83.48,0.666
2.82,83.51,0.666
2.83,83.55,0.666
2.83,83.58,0.666
2.83,83.61,0.666
2.83,83.65,0.666
2.83,83.68,0.666
2.83,83.71,0.666
2.84,83.75,0.666
2.84,83.78,0.666
2.84,83.81,0.667
2.84,83.85,0.667
2.84,83.88,0.667
2.84,83.91,0.667
2.84,83.95,0.667
2.85,83.98,0.667
2.85,84.01,0.667
2.85,84.05,0.667
2.85,84.08,0.667
2.85,84.11,0.667
2.86,84.15,0.667
2.86,84.18,0.667
2.86,84.21,0.667
2.86,84.25,0.667
2.86,84.28,0.667
2.86,84.32,0.667
2.86,84.35,0.667
2.87,84.38,0.667
2.87,84.41,0.667
2.87,84.45,0.667
2.87,84.48,0.667
2.87,84.52,0.667
2.88,84.55,0.667
2.88,84.58,0.667
2.88,84.62,0.667
2.88,84.65,0.667
2.88,84.68,0.667
2.88,84.72,0.667
2.89,84.75,0.667
2.89,84.78,0.668
2.89,84.82,0.668
2.89,84.85,0.668
2.89,84.88,0.668
2.89,84.92,0.668
2.89,84.95,0.668
2.90,84.98,0.668
2.90,85.02,0.668
2.90,85.05,0.668
2.90,85.08,0.668
2.90,85.12,0.668
2.91,85.15,0.668
2.91,85.18,0.668
2.91,85.22,0.668
2.91,85.25,0.668
2.91,85.28,0.668
2.91,85.32,0.668
2.91,85.35,0.668
2.92,85.38,0.668
2.92,85.42,0.668
2.92,85.45,0.668
2.92,85.48,0.668
2.92,85.52,0.668
2.93,85.55,0.668
2.93,85.58,0.668
2.93,85.62,0.668
2.93,85.65,0.668
2.93,85.68,0.668
2.93,85.72,0.668
2.94,85.75,0.668
2.94,85.78,0.668
2.94,85.82,0.668
2.94,85.85,0.668
2.94,85.88,0.669
2.94,85.92,0.669
2.94,85.95,0.669
2.95,85.98,0.669
2.95,86.02,0.669
2.95,86.05,0.669
2.95,86.08,0.669
2.95,86.12,0.669
2.96,86.15,0.669
2.96,86.19,0.669
2.96,86.22,0.669
2.96,86.25,0.669
2.96,86.29,0.669
2.96,86.32,0.669
2.96,86.35,0.669
2.97,86.39,0.669
2.97,86.42,0.669
2.97,86.45,0.669
2.97,86.49,0.669
2.97,86.52,0.669
2.98,86.55,0.669
2.98,86.59,0.669
2.98,86.62,0.669
2.98,86.65,0.669
2.98,86.69,0.669
2.98,86.72,0.669
2.99,86.75,0.669
2.99,86.79,0.669
2.99,86.82,0.669
2.99,86.85,0.669
2.99,86.89,0.669
2.99,86.92,0.669
2.99,86.95,0.669
3.00,86.99,0.669
3.00,87.02,0.669
3.00,87.05,0.669
3.00,87.09,0.670
3.00,87.12,0.670
3.01,87.15,0.670
3.01,87.19,0.670
3.01,87.22,0.670
3.01,87.25,0.670
3.01,87.29,0.670
3.01,87.32,0.670
3.01,87.35,0.670
3.02,87.39,0.670
3.02,87.42,0.670
3.02,87.45,0.670
3.02,87.49,0.670
3.02,87.52,0.670
3.03,87.55,0.670
3.03,87.59,0.670
3.03,87.62,0.670
3.03,87.65,0.670
3.03,87.69,0.670
3.03,87.72,0.670
3.04,87.75,0.670
3.04,87.79,0.670
3.04,87.82,0.670
3.04,87.85,0.670
3.04,87.89,0.670
3.04,87.92,0.671
3.04,87.95,0.671
3.05,87.99,0.671
3.05,88.02,0.671
3.05,88.05,0.671
3.05,88.09,0.671
3.05,88.12,0.671
3.06,88.15,0.671
3.06,88.19,0.671
3.06,88.22,0.671
3.06,88.26,0.671
3.06,88.29,0.671
3.06,88.32,0.671
3.06,88.35,0.671
3.07,88.39,0.671
3.07,88.42,0.671
3.07,88.45,0.671
3.07,88.49,0.671
3.07,88.52,0.671
3.08,88.56,0.671
3.08,88.59,0.671
3.08,88.62,0.671
3.08,88.66,0.671
3.08,88.69,0.671
3.08,88.72,0.671
3.09,88.76,0.671
3.09,88.79,0.671
3.09,88.82,0.672
3.09,88.86,0.672
3.09,88.89,0.672
3.09,88.92,0.672
3.09,88.96,0.672
3.10,88.99,0.672
3.10,89.02,0.672
3.10,89.06,0.672
3.10,89.09,0.672
3.10,89.12,0.672
3.11,89.16,0.672
3.11,89.19,0.672
3.11,89.22,0.672
3.11,89.26,0.672
3.11,89.29,0.672
3.11,89.32,0.672
3.11,89.36,0.672
3.12,89.39,0.672
3.12,89.42,0.672
3.12,89.46,0.672
3.12,89.49,0.672
3.12,89.52,0.672
3.13,89.56,0.672
3.13,89.59,0.673
3.13,89.62,0.673
3.13,89.66,0.673
3.13,89.69,0.673
3.13,89.72,0.673
3.14,89.76,0.673
3.14,89.79,0.673
3.14,89.82,0.673
3.14,89.86,0.673
3.14,89.89,0.673
3.14,89.92,0.673
3.14,89.96,0.673
3.15,89.99,0.673
3.15,90.02,0.673
3.15,90.06,0.673
3.15,90.09,0.674
3.15,90.12,0.674
3.16,90.16,0.674
3.16,90.19,0.674
3.16,90.22,0.674
3.16,90.26,0.674
3.16,90.29,0.674
3.16,90.32,0.674
3.16,90.36,0.674
3.17,90.39,0.674
3.17,90.43,0.674
3.17,90.46,0.674
3.17,90.49,0.674
3.17,90.53,0.674
3.18,90.56,0.674
3.18,90.59,0.674
3.18,90.62,0.674
3.18,90.66,0.674
3.18,90.69,0.674
3.18,90.72,0.674
3.19,90.76,0.674
3.19,90.79,0.674
3.19,90.83,0.675
3.19,90.86,0.675
3.19,90.89,0.675
3.19,90.93,0.675
3.19,90.96,0.675
3.20,90.99,0.675
3.20,91.03,0.675
3.20,91.06,0.675
3.20,91.09,0.675
3.20,91.13,0.675
3.21,91.16,0.675
3.21,91.19,0.675
3.21,91.23,0.675
3.21,91.26,0.675
3.21,91.29,0.675
3.21,91.33,0.675
3.21,91.36,0.675
3.22,91.39,0.675
3.22,91.43,0.675
3.22,91.46,0.675
3.22,91.49,0.675
3.22,91.53,0.675
3.23,91.56,0.676
3.23,91.59,0.676
3.23,91.63,0.676
3.23,91.66,0.676
3.23,91.69,0.676
3.23,91.73,0.676
3.24,91.76,0.676
3.24,91.79,0.676
3.24,91.83,0.676
3.24,91.86,0.676
3.24,91.89,0.676
3.24,91.93,0.676
3.24,91.96,0.676
3.25,91.99,0.676
3.25,92.03,0.676
3.25,92.06,0.676
3.25,92.09,0.676
3.25,92.13,0.676
3.26,92.16,0.676
3.26,92.19,0.677
3.26,92.23,0.677
3.26,92.26,0.677
3.26,92.29,0.677
3.26,92.33,0.677
3.26,92.36,0.677
3.27,92.39,0.677
3.27,92.43,0.677
3.27,92.46,0.677
3.27,92.49,0.677
3.27,92.53,0.677
3.28,92.56,0.677
3.28,92.59,0.677
3.28,92.63,0.677
3.28,92.66,0.677
3.28,92.69,0.677
3.28,92.73,0.677
3.29,92.76,0.677
3.29,92.79,0.677
3.29,92.83,0.677
3.29,92.86,0.678
3.29,92.89,0.678
3.29,92.93,0.678
3.29,92.96,0.678
3.30,92.99,0.678
3.30,93.03,0.678
3.30,93.06,0.678
3.30,93.10,0.678
3.30,93.13,0.678
3.31,93.16,0.678
3.31,93.19,0.678
3.31,93.23,0.678
3.31,93.26,0.678
3.31,93.29,0.678
3.31,93.33,0.678
3.31,93.36,0.679
3.32,93.40,0.679
3.32,93.43,0.679
3.32,93.46,0.679
3.32,93.50,0.679
3.32,93.53,0.679
3.33,93.56,0.679
3.33,93.60,0.679
3.33,93.63,0.679
3.33,93.66,0.679
3.33,93.70,0.679
3.33,93.73,0.679
3.34,93.76,0.679
3.34,93.80,0.679
3.34,93.83,0.679
3.34,93.86,0.679
3.34,93.90,0.679
3.34,93.93,0.679
3.34,93.96,0.679
3.35,93.99,0.679
3.35,94.03,0.680
3.35,94.06,0.680
3.35,94.09,0.680
3.35,94.13,0.680
3.36,94.16,0.680
3.36,94.20,0.680
3.36,94.23,0.680
3.36,94.26,0.680
3.36,94.30,0.680
3.36,94.33,0.680
3.36,94.36,0.680
3.37,94.40,0.680
3.37,94.43,0.680
3.37,94.46,0.680
3.37,94.50,0.680
3.37,94.53,0.680
3.38,94.56,0.680
3.38,94.60,0.680
3.38,94.63,0.680
3.38,94.66,0.680
3.38,94.70,0.680
3.38,94.73,0.681
3.39,94.76,0.681
3.39,94.80,0.681
3.39,94.83,0.681
3.39,94.86,0.681
3.39,94.90,0.681
3.39,94.93,0.681
3.39,94.96,0.681
3.40,95.00,0.681
3.40,95.03,0.681
3.40,95.06,0.681
3.40,95.10,0.681
3.40,95.13,0.681
3.41,95.16,0.681
3.41,95.20,0.681
3.41,95.23,0.681
3.41,95.26,0.681
3.41,95.30,0.681
3.41,95.33,0.681
3.41,95.36,0.682
3.42,95.40,0.682
3.42,95.43,0.682
3.42,95.46,0.682
3.42,95.50,0.682
3.42,95.53,0.682
3.43,95.56,0.682
3.43,95.60,0.682
3.43,95.63,0.682
3.43,95.66,0.682
3.43,95.70,0.682
3.43,95.73,0.682
3.44,95.76,0.682
3.44,95.80,0.682
3.44,95.83,0.682
3.44,95.86,0.682
3.44,95.90,0.682
3.44,95.93,0.682
3.44,95.96,0.682
3.45,96.00,0.683
3.45,96.03,0.683
3.45,96.06,0.683
3.45,96.10,0.683
3.45,96.13,0.683
3.46,96.16,0.683
3.46,96.20,0.683
3.46,96.23,0.683
3.46,96.27,0.683
3.46,96.30,0.683
3.46,96.33,0.683
3.46,96.36,0.683
3.47,96.40,0.683
3.47,96.43,0.683
3.47,96.47,0.683
3.47,96.50,0.683
3.47,96.53,0.683
3.48,96.57,0.683
3.48,96.60,0.684
3.48,96.63,0.684
3.48,96.66,0.684
3.48,96.70,0.684
3.48,96.73,0.684
3.49,96.77,0.684
3.49,96.80,0.684
3.49,96.83,0.684
3.49,96.86,0.684
3.49,96.90,0.684
3.49,96.93,0.684
3.49,96.97,0.684
3.50,97.00,0.684
3.50,97.03,0.684
3.50,97.07,0.684
3.50,97.10,0.684
3.50,97.13,0.684
3.51,97.17,0.684
3.51,97.20,0.685
3.51,97.23,0.685
3.51,97.27,0.685
3.51,97.30,0.685
3.51,97.33,0.685
3.51,97.37,0.685
3.52,97.40,0.685
3.52,97.43,0.685
3.52,97.47,0.685
3.52,97.50,0.685
3.52,97.53,0.685
3.53,97.57,0.685
3.53,97.60,0.685
3.53,97.63,0.685
3.53,97.67,0.685
3.53,97.70,0.685
3.53,97.73,0.685
3.54,97.77,0.685
3.54,97.80,0.686
3.54,97.83,0.686
3.54,97.87,0.686
3.54,97.90,0.686
3.54,97.93,0.686
3.54,97.97,0.686
3.55,98.00,0.686
3.55,98.03,0.686
3.55,98.07,0.686
3.55,98.10,0.686
3.55,98.13,0.686
3.56,98.17,0.686
3.56,98.20,0.686
3.56,98.23,0.686
3.56,98.27,0.686
3.56,98.30,0.686
3.56,98.33,0.686
3.56,98.37,0.687
3.57,98.40,0.687
3.57,98.43,0.687
3.57,98.47,0.687
3.57,98.50,0.687
3.57,98.54,0.687
3.58,98.57,0.687
3.58,98.60,0.687
3.58,98.64,0.687
3.58,98.67,0.687
3.58,98.70,0.687
3.58,98.74,0.687
3.59,98.77,0.687
3.59,98.80,0.687
3.59,98.84,0.687
3.59,98.87,0.687
3.59,98.90,0.687
3.59,98.94,0.687
3.59,98.97,0.688
3.60,99.00,0.688
3.60,99.04,0.688
3.60,99.07,0.688
3.60,99.10,0.688
3.60,99.14,0.688
3.61,99.17,0.688
3.61,99.20,0.688
3.61,99.24,0.688
3.61,99.27,0.688
3.61,99.30,0.688
3.61,99.34,0.688
3.61,99.37,0.688
3.62,99.40,0.688
3.62,99.44,0.688
3.62,99.47,0.688
3.62,99.50,0.688
3.62,99.54,0.689
3.63,99.57,0.689
3.63,99.60,0.689
3.63,99.64,0.689
3.63,99.67,0.689
3.63,99.70,0.689
3.63,99.74,0.689
3.64,99.77,0.689
3.64,99.80,0.689
3.64,99.84,0.689
3.64,99.87,0.689
3.64,99.90,0.689
3.64,99.94,0.689
3.64,99.97,0.689
3.65,100.00,0.689
3.65,100.04,0.689
3.65,100.07,0.689
3.65,100.10,0.689
3.65,100.14,0.689
3.66,100.17,0.690
3.66,100.20,0.690
3.66,100.24,0.690
3.66,100.27,0.690
3.66,100.30,0.690
3.66,100.34,0.690
3.66,100.37,0.690
3.67,100.41,0.690
3.67,100.44,0.690
3.67,100.47,0.690
3.67,100.50,0.690
3.67,100.54,0.690
3.68,100.57,0.690
3.68,100.61,0.690
3.68,100.64,0.690
3.68,100.67,0.690
3.68,100.71,0.690
3.68,100.74,0.690
3.69,100.77,0.691
3.69,100.81,0.691
3.69,100.84,0.691
3.69,100.87,0.691
3.69,100.91,0.691
3.69,100.94,0.691
3.69,100.97,0.691
3.70,101.01,0.691
3.70,101.04,0.691
3.70,101.07,0.691
3.70,101.11,0.691
3.70,101.14,0.691
3.71,101.17,0.691
3.71,101.21,0.691
3.71,101.24,0.691
3.71,101.27,0.691
3.71,101.31,0.691
3.71,101.34,0.691
3.71,101.37,0.692
3.72,101.41,0.692
3.72,101.44,0.692
3.72,101.47,0.692
3.72,101.51,0.692
3.72,101.54,0.692
3.73,101.57,0.692
3.73,101.61,0.692
3.73,101.64,0.692
3.73,101.67,0.692
3.73,101.71,0.692
3.73,101.74,0.692
3.74,101.77,0.692
3.74,101.81,0.692
3.74,101.84,0.692
3.74,101.87,0.692
3.74,101.91,0.692
3.74,101.94,0.692
3.74,101.97,0.692
3.75,102.01,0.693
3.75,102.04,0.693
3.75,102.07,0.693
3.75,102.11,0.693
3.75,102.14,0.693
3.76,102.17,0.693
3.76,102.21,0.693
3.76,102.24,0.693
3.76,102.27,0.693
3.76,102.31,0.693
3.76,102.34,0.693
3.76,102.37,0.693
3.77,102.41,0.693
3.77,102.44,0.693
3.77,102.47,0.693
3.77,102.51,0.693
3.77,102.54,0.693
3.78,102.57,0.693
3.78,102.61,0.693
3.78,102.64,0.694
3.78,102.68,0.694
3.78,102.71,0.694
3.78,102.74,0.694
3.79,102.77,0.694
3.79,102.81,0.694
3.79,102.84,0.694
3.79,102.88,0.694
3.79,102.91,0.694
3.79,102.94,0.694
3.79,102.98,0.694
3.80,103.01,0.694
3.80,103.04,0.694
3.80,103.08,0.694
3.80,103.11,0.694
3.80,103.14,0.694
3.81,103.18,0.694
3.81,103.21,0.694
3.81,103.24,0.694
3.81,103.28,0.694
3.81,103.31,0.695
3.81,103.34,0.695
3.81,103.38,0.695
3.82,103.41,0.695
3.82,103.44,0.695
3.82,103.48,0.695
3.82,103.51,0.695
3.82,103.54,0.695
3.83,103.58,0.695
3.83,103.61,0.695
3.83,103.64,0.695
3.83,103.68,0.695
3.83,103.71,0.695
3.83,103.74,0.695
3.84,103.78,0.695
3.84,103.81,0.695
3.84,103.84,0.696
3.84,103.88,0.696
3.84,103.91,0.696
3.84,103.94,0.696
3.84,103.98,0.696
3.85,104.01,0.696
3.85,104.04,0.696
3.85,104.08,0.696
3.85,104.11,0.696
3.85,104.14,0.696
3.86,104.18,0.696
3.86,104.21,0.696
3.86,104.24,0.696
3.86,104.28,0.697
3.86,104.31,0.697
3.86,104.34,0.697
3.86,104.38,0.697
3.87,104.41,0.697
3.87,104.44,0.697
3.87,104.48,0.697
3.87,104.51,0.697
3.87,104.54,0.697
3.88,104.58,0.697
3.88,104.61,0.697
3.88,104.64,0.697
3.88,104.68,0.697
3.88,104.71,0.697
3.88,104.74,0.697
3.89,104.78,0.697
3.89,104.81,0.697
3.89,104.84,0.697
3.89,104.88,0.697
3.89,104.91,0.697
3.89,104.94,0.698
3.89,104.98,0.698
3.90,105.01,0.698
3.90,105.04,0.698
3.90,105.08,0.698
3.90,105.11,0.698
3.90,105.14,0.698
3.91,105.18,0.698
3.91,105.21,0.698
3.91,105.24,0.698
3.91,105.28,0.698
3.91,105.31,0.698
3.91,105.35,0.698
3.91,105.38,0.698
3.92,105.41,0.698
3.92,105.45,0.698
3.92,105.48,0.698
3.92,105.51,0.698
3.92,105.55,0.699
3.93,105.58,0.699
3.93,105.61,0.699
3.93,105.65,0.699
3.93,105.68,0.699
3.93,105.71,0.699
3.93,105.75,0.699
3.94,105.78,0.699
3.94,105.81,0.699
3.94,105.85,0.699
3.94,105.88,0.699
3.94,105.91,0.699
3.94,105.95,0.700
3.94,105.98,0.700
3.95,106.01,0.700
3.95,106.05,0.700
3.95,106.08,0.700
3.95,106.11,0.700
3.95,106.15,0.700
3.96,106.18,0.700
3.96,106.21,0.700
3.96,106.24,0.700
3.96,106.28,0.700
3.96,106.31,0.700
3.96,106.35,0.700
3.96,106.38,0.700
3.97,106.41,0.700
3.97,106.45,0.700
3.97,106.48,0.700
3.97,106.51,0.700
3.97,106.55,0.700
3.98,106.58,0.700
3.98,106.61,0.701
3.98,106.65,0.701
3.98,106.68,0.701
3.98,106.71,0.701
3.98,106.75,0.701
3.99,106.78,0.701
3.99,106.81,0.701
3.99,106.85,0.701
3.99,106.88,0.701
3.99,106.91,0.701
3.99,106.95,0.701
3.99,106.98,0.701
4.00,107.01,0.701
4.00,107.05,0.701
4.00,107.08,0.701
4.00,107.11,0.701
4.00,107.15,0.701
4.01,107.18,0.702
4.01,107.21,0.702
4.01,107.25,0.702
4.01,107.28,0.702
4.01,107.31,0.702
4.01,107.35,0.702
4.01,107.38,0.702
4.02,107.41,0.702
4.02,107.45,0.702
4.02,107.48,0.702
4.02,107.51,0.702
4.02,107.55,0.702
4.03,107.58,0.702
4.03,107.61,0.702
4.03,107.65,0.702
4.03,107.68,0.702
4.03,107.71,0.702
4.03,107.75,0.702
4.04,107.78,0.702
4.04,107.81,0.702
4.04,107.85,0.703
4.04,107.88,0.703
4.04,107.91,0.703
4.04,107.95,0.703
4.04,107.98,0.703
4.05,108.02,0.703
4.05,108.05,0.703
4.05,108.08,0.703
4.05,108.11,0.704
4.05,108.15,0.704
4.06,108.18,0.704
4.06,108.21,0.704
4.06,108.25,0.704
4.06,108.28,0.704
4.06,108.32,0.704
4.06,108.35,0.704
4.06,108.38,0.704
4.07,108.42,0.704
4.07,108.45,0.704
4.07,108.48,0.704
4.07,108.52,0.704
4.07,108.55,0.704
4.08,108.58,0.704
4.08,108.62,0.704
4.08,108.65,0.704
4.08,108.68,0.704
4.08,108.72,0.705
4.08,108.75,0.705
4.09,108.78,0.705
4.09,108.82,0.705
4.09,108.85,0.705
4.09,108.88,0.705
4.09,108.92,0.705
4.09,108.95,0.705
4.09,108.98,0.705
4.10,109.02,0.705
4.10,109.05,0.705
4.10,109.08,0.705
4.10,109.12,0.705
4.10,109.15,0.705
4.11,109.18,0.705
4.11,109.22,0.706
4.11,109.25,0.706
4.11,109.28,0.706
4.11,109.32,0.706
4.11,109.35,0.706
4.11,109.38,0.706
4.12,109.42,0.706
4.12,109.45,0.706
4.12,109.48,0.706
4.12,109.52,0.706
4.12,109.55,0.706
4.13,109.59,0.706
4.13,109.62,0.706
4.13,109.65,0.706
4.13,109.68,0.706
4.13,109.72,0.706
4.13,109.75,0.706
4.14,109.78,0.706
4.14,109.82,0.707
4.14,109.85,0.707
4.14,109.88,0.707
4.14,109.92,0.707
4.14,109.95,0.707
4.14,109.98,0.707
4.15,110.02,0.707
4.15,110.05,0.707
4.15,110.09,0.707
4.15,110.12,0.707
4.15,110.15,0.707
4.16,110.19,0.707
4.16,110.22,0.707
4.16,110.25,0.707
4.16,110.28,0.707
4.16,110.32,0.707
4.16,110.35,0.707
4.16,110.39,0.707
4.17,110.42,0.707
4.17,110.45,0.708
4.17,110.49,0.708
4.17,110.52,0.708
4.17,110.55,0.708
4.18,110.59,0.708
4.18,110.62,0.708
4.18,110.65,0.708
4.18,110.69,0.708
4.18,110.72,0.708
4.18,110.75,0.708
4.19,110.79,0.708
4.19,110.82,0.708
4.19,110.85,0.708
4.19,110.89,0.708
4.19,110.92,0.708
4.19,110.95,0.708
4.19,110.99,0.708
4.20,111.02,0.709
4.20,111.05,0.709
4.20,111.09,0.709
4.20,111.12,0.709
4.20,111.15,0.710
4.21,111.19,0.710
4.21,111.22,0.710
4.21,111.25,0.710
4.21,111.29,0.710
4.21,111.32,0.710
4.21,111.35,0.710
4.21,111.39,0.710
4.22,111.42,0.710
4.22,111.45,0.710
4.22,111.49,0.710
4.22,111.52,0.710
4.22,111.55,0.710
4.23,111.59,0.710
4.23,111.62,0.710
4.23,111.65,0.710
4.23,111.69,0.710
4.23,111.72,0.711
4.23,111.75,0.711
4.24,111.79,0.711
4.24,111.82,0.711
4.24,111.85,0.711
4.24,111.89,0.711
4.24,111.92,0.711
4.24,111.95,0.711
4.24,111.99,0.711
4.25,112.02,0.711
4.25,112.05,0.711
4.25,112.09,0.711
4.25,112.12,0.711
4.25,112.15,0.711
4.26,112.19,0.712
4.26,112.22,0.712
4.26,112.25,0.712
4.26,112.29,0.712
4.26,112.32,0.712
4.26,112.35,0.712
4.26,112.39,0.712
4.27,112.42,0.712
4.27,112.45,0.712
4.27,112.49,0.712
4.27,112.52,0.712
4.27,112.55,0.712
4.28,112.59,0.712
4.28,112.62,0.712
4.28,112.65,0.713
4.28,112.69,0.713
4.28,112.72,0.713
4.28,112.75,0.713
4.29,112.79,0.713
4.29,112.82,0.713
4.29,112.85,0.713
4.29,112.89,0.713
4.29,112.92,0.713
4.29,112.95,0.713
4.30,112.99,0.713
4.30,113.02,0.713
4.30,113.06,0.713
4.30,113.09,0.713
4.30,113.12,0.714
4.30,113.16,0.714
4.30,113.19,0.714
4.31,113.22,0.714
4.31,113.26,0.714
4.31,113.29,0.714
4.31,113.32,0.714
4.31,113.36,0.714
4.31,113.39,0.714
4.32,113.42,0.714
4.32,113.45,0.714
4.32,113.49,0.714
4.32,113.52,0.714
4.32,113.55,0.715
4.33,113.59,0.715
4.33,113.62,0.715
4.33,113.66,0.715
4.33,113.69,0.715
4.33,113.72,0.715
4.33,113.75,0.715
4.34,113.79,0.715
4.34,113.82,0.715
4.34,113.86,0.715
4.34,113.89,0.715
4.34,113.92,0.716
4.34,113.96,0.716
4.35,113.99,0.716
4.35,114.02,0.716
4.35,114.06,0.716
4.35,114.09,0.716
4.35,114.12,0.716
4.35,114.16,0.716
4.35,114.19,0.716
4.36,114.22,0.716
4.36,114.26,0.716
4.36,114.29,0.716
4.36,114.32,0.716
4.36,114.36,0.717
4.36,114.39,0.717
4.37,114.42,0.717
4.37,114.46,0.717
4.37,114.49,0.717
4.37,114.52,0.717
4.37,114.56,0.717
4.38,114.59,0.717
4.38,114.62,0.718
4.38,114.66,0.718
4.38,114.69,0.718
4.38,114.72,0.719
4.38,114.76,0.719
4.39,114.79,0.719
4.39,114.82,0.719
4.39,114.86,0.719
4.39,114.89,0.719
4.39,114.92,0.719
4.39,114.96,0.719
4.40,114.99,0.719
4.40,115.02,0.719
4.40,115.06,0.719
4.40,115.09,0.719
4.40,115.12,0.719
4.40,115.16,0.719
4.40,115.19,0.720
4.41,115.22,0.720
4.41,115.26,0.720
4.41,115.29,0.720
4.41,115.33,0.720
4.41,115.36,0.720
4.41,115.39,0.720
4.42,115.43,0.720
4.42,115.46,0.720
4.42,115.49,0.721
4.42,115.52,0.721
4.42,115.56,0.721
4.43,115.59,0.721
4.43,115.62,0.721
4.43,115.66,0.721
4.43,115.69,0.721
4.43,115.72,0.721
4.43,115.76,0.721
4.44,115.79,0.721
4.44,115.82,0.721
4.44,115.86,0.722
4.44,115.89,0.722
4.44,115.92,0.722
4.44,115.96,0.722
4.45,115.99,0.722
4.45,116.03,0.722
4.45,116.06,0.722
4.45,116.09,0.723
4.45,116.12,0.723
4.45,116.16,0.723
4.45,116.19,0.723
4.46,116.22,0.723
4.46,116.26,0.724
4.46,116.29,0.724
4.46,116.32,0.724
4.46,116.36,0.724
4.46,116.39,0.724
4.47,116.43,0.724
4.47,116.46,0.724
4.47,116.49,0.725
4.47,116.52,0.725
4.47,116.56,0.725
4.48,116.59,0.726
4.48,116.63,0.727
4.48,116.66,0.727
4.48,116.69,0.727
4.48,116.72,0.728
4.48,116.76,0.728
4.49,116.79,0.728
4.49,116.83,0.728
4.49,116.86,0.728
4.49,116.89,0.729
4.49,116.92,0.729
4.49,116.96,0.729
4.50,116.99,0.729
4.50,117.03,0.729
4.50,117.06,0.729
4.50,117.09,0.729
4.50,117.13,0.730
4.50,117.16,0.730
4.50,117.19,0.730
4.51,117.23,0.730
4.51,117.26,0.731
4.51,117.29,0.731
4.51,117.33,0.731
4.51,117.36,0.731
4.51,117.39,0.731
4.52,117.42,0.732
4.52,117.46,0.732
4.52,117.49,0.732
4.52,117.53,0.733
4.52,117.56,0.733
4.53,117.59,0.734
4.53,117.63,0.734
4.53,117.66,0.735
4.53,117.69,0.736
4.53,117.73,0.737
4.53,117.76,0.737
4.54,117.79,0.738
4.54,117.83,0.739
4.54,117.86,0.739
4.54,117.89,0.740
4.54,117.92,0.740
4.54,117.96,0.741
4.55,117.99,0.742
4.55,118.03,0.743
4.55,118.06,0.744
4.55,118.09,0.745
4.55,118.12,0.746
4.55,118.16,0.746
4.55,118.19,0.747
4.56,118.22,0.748
4.56,118.26,0.748
4.56,118.29,0.749
4.56,118.32,0.750
4.56,118.36,0.750
4.56,118.39,0.750
4.57,118.42,0.751
4.57,118.46,0.751
4.57,118.49,0.752
4.57,118.52,0.753
4.57,118.56,0.754
4.58,118.59,0.756
4.58,118.62,0.758
4.58,118.66,0.759
4.58,118.69,0.760
4.58,118.73,0.760
4.58,118.76,0.761
4.59,118.79,0.761
4.59,118.82,0.762
4.59,118.86,0.762
4.59,118.89,0.763
4.59,118.92,0.764
4.59,118.96,0.765
4.60,118.99,0.766
4.60,119.02,0.767
4.60,119.06,0.767
4.60,119.09,0.768
4.60,119.12,0.769
4.60,119.16,0.771
4.60,119.19,0.773
4.61,119.22,0.775
4.61,119.26,0.778
4.61,119.29,0.780
4.61,119.32,0.781
4.61,119.36,0.782
4.61,119.39,0.784
4.62,119.42,0.785
4.62,119.46,0.785
4.62,119.49,0.786
4.62,119.52,0.787
4.62,119.56,0.790
4.63,119.59,0.792
4.63,119.62,0.795
4.63,119.66,0.797
4.63,119.69,0.799
4.63,119.72,0.802
4.63,119.76,0.805
4.64,119.79,0.807
4.64,119.82,0.809
4.64,119.85,0.811
4.64,119.89,0.814
4.64,119.92,0.816
4.64,119.95,0.819
4.65,119.99,0.821
4.65,120.02,0.823
4.65,120.05,0.826
4.65,120.09,0.827
4.65,120.12,0.830
4.65,120.15,0.833
4.65,120.19,0.835
4.66,120.22,0.840
4.66,120.25,0.845
4.66,120.29,0.849
4.66,120.32,0.854
4.66,120.35,0.861
4.66,120.39,0.866
4.67,120.42,0.871
4.67,120.45,0.875
4.67,120.48,0.880
4.67,120.52,0.886
4.67,120.55,0.891
4.68,120.58,0.898
4.68,120.62,0.904
4.68,120.65,0.911
4.68,120.68,0.917
4.68,120.71,0.926
4.68,120.75,0.935
4.69,120.78,0.943
4.69,120.81,0.952
4.69,120.85,0.962
4.69,120.88,0.973
4.69,120.91,0.984
4.69,120.94,0.996
4.70,120.97,1.010
4.70,121.01,1.024
4.70,121.04,1.037
4.70,121.07,1.054
4.70,121.10,1.071
4.70,121.14,1.089
4.70,121.17,1.109
4.71,121.20,1.131
4.71,121.23,1.155
4.71,121.27,1.180
4.71,121.30,1.206
4.71,121.33,1.236
4.71,121.36,1.268
4.72,121.39,1.304
4.72,121.42,1.341
4.72,121.45,1.383
4.72,121.48,1.429
4.72,121.52,1.478
4.73,121.55,1.532
4.73,121.58,1.591
4.73,121.61,1.656
4.73,121.64,1.725
4.73,121.67,1.800
4.73,121.70,1.881
4.74,121.72,1.968
4.74,121.75,2.063
4.74,121.78,2.165
4.74,121.81,2.275
4.74,121.84,2.393
4.74,121.86,2.519
4.75,121.89,2.652
4.75,121.91,2.794
4.75,121.94,2.943
4.75,121.96,3.097
4.75,121.99,3.255
4.75,122.01,3.416
4.75,122.03,3.580
4.76,122.05,3.746
4.76,122.08,3.912
4.76,122.10,4.076
4.76,122.12,4.235
4.76,122.14,4.394
4.76,122.16,4.553
4.77,122.18,4.710
4.77,122.19,4.862
4.77,122.21,5.011
4.77,122.23,5.161
4.77,122.25,5.314
4.78,122.27,5.469
4.78,122.28,5.628
4.78,122.30,5.791
4.78,122.32,5.956
4.78,122.33,6.124
4.78,122.35,6.298
4.79,122.36,6.472
4.79,122.38,6.644
4.79,122.39,6.812
4.79,122.40,6.977
4.79,122.42,7.137
4.79,122.43,7.292
4.80,122.45,7.443
4.80,122.46,7.589
4.80,122.47,7.730
4.80,122.48,7.865
4.80,122.50,7.993
4.80,122.51,8.115
4.80,122.52,8.229
4.81,122.54,8.337
4.81,122.55,8.438
4.81,122.56,8.535
4.81,122.57,8.627
4.81,122.59,8.718
4.81,122.60,8.807
4.82,122.61,8.895
4.82,122.63,8.981
4.82,122.64,9.064
4.82,122.66,9.142
4.82,122.67,9.213
4.83,122.68,9.278
4.83,122.70,9.336
4.83,122.72,9.386
4.83,122.73,9.432
4.83,122.74,9.474
4.83,122.76,9.514
4.84,122.78,9.552
4.84,122.80,9.588
4.84,122.81,9.623
4.84,122.83,9.656
4.84,122.85,9.689
4.84,122.87,9.721
4.85,122.88,9.755
4.85,122.90,9.791
4.85,122.92,9.827
4.85,122.94,9.866
4.85,122.96,9.906
4.85,122.98,9.949
4.85,123.00,9.993
4.86,123.02,10.035
4.86,123.04,10.076
4.86,123.06,10.111
4.86,123.08,10.143
4.86,123.10,10.170
4.86,123.12,10.193
4.87,123.14,10.213
4.87,123.16,10.230
4.87,123.18,10.244
4.87,123.20,10.256
4.87,123.23,10.267
4.88,123.25,10.277
4.88,123.27,10.284
4.88,123.30,10.289
4.88,123.32,10.292
4.88,123.34,10.292
4.88,123.37,10.288
4.89,123.39,10.282
4.89,123.42,10.274
4.89,123.44,10.266
4.89,123.47,10.259
4.89,123.49,10.253
4.89,123.52,10.248
4.90,123.54,10.246
4.90,123.57,10.247
4.90,123.60,10.248
4.90,123.62,10.250
4.90,123.65,10.252
4.90,123.68,10.255
4.90,123.71,10.258
4.91,123.73,10.262
4.91,123.76,10.266
4.91,123.79,10.270
4.91,123.81,10.270
4.91,123.84,10.268
4.91,123.87,10.262
4.92,123.90,10.252
4.92,123.93,10.240
4.92,123.96,10.225
4.92,123.99,10.211
4.92,124.02,10.200
4.93,124.05,10.193
4.93,124.07,10.190
4.93,124.10,10.193
4.93,124.13,10.200
4.93,124.16,10.211
4.93,124.19,10.223
4.94,124.22,10.234
4.94,124.25,10.242
4.94,124.28,10.247
4.94,124.31,10.249
4.94,124.34,10.247
4.94,124.37,10.242
4.95,124.40,10.234
4.95,124.43,10.226
4.95,124.47,10.220
4.95,124.50,10.220
4.95,124.53,10.224
4.95,124.56,10.231
4.95,124.59,10.239
4.96,124.62,10.246
4.96,124.65,10.255
4.96,124.68,10.261
4.96,124.71,10.265
4.96,124.74,10.265
4.96,124.78,10.259
4.97,124.81,10.248
4.97,124.84,10.236
4.97,124.87,10.225
4.97,124.90,10.217
4.97,124.93,10.207
4.98,124.97,10.197
4.98,125.00,10.194
4.98,125.03,10.200
4.98,125.06,10.212
4.98,125.09,10.219
4.98,125.13,10.218
4.99,125.16,10.200
4.99,125.19,10.161
4.99,125.22,10.089
4.99,125.25,9.976
4.99,125.29,9.811
4.99,125.32,9.585
5.00,125.36,9.296
5.00,125.40,8.950
5.00,125.44,8.550
5.00,125.48,8.100
5.00,125.53,7.614
5.00,125.58,7.108
5.00,125.63,6.601
5.01,125.68,6.110
5.01,125.74,5.650
5.01,125.79,5.234
5.01,125.85,4.869
5.01,125.91,4.556
5.01,125.97,4.295
5.02,126.03,4.078
5.02,126.09,3.900
5.02,126.15,3.753
5.02,126.21,3.630
5.02,126.27,3.525
5.03,126.32,3.433
5.03,126.38,3.352
5.03,126.44,3.278
5.03,126.50,3.211
5.03,126.55,3.148
5.03,126.61,3.092
5.04,126.66,3.037
5.04,126.72,2.987
5.04,126.78,2.940
5.04,126.83,2.895
5.04,126.88,2.852
5.04,126.94,2.811
5.05,126.99,2.770
5.05,127.04,2.731
5.05,127.10,2.693
5.05,127.15,2.657
5.05,127.20,2.621
5.05,127.25,2.586
5.05,127.30,2.551
5.06,127.35,2.518
5.06,127.40,2.485
5.06,127.45,2.455
5.06,127.50,2.425
5.06,127.55,2.396
5.06,127.60,2.366
5.07,127.65,2.336
5.07,127.70,2.308
5.07,127.75,2.279
5.07,127.79,2.253
5.07,127.84,2.225
5.08,127.89,2.197
5.08,127.94,2.173
5.08,127.98,2.148
5.08,128.03,2.124
5.08,128.08,2.101
5.08,128.12,2.078
5.09,128.17,2.055
5.09,128.21,2.032
5.09,128.26,2.009
5.09,128.30,1.988
5.09,128.35,1.966
5.09,128.39,1.945
5.10,128.44,1.924
5.10,128.48,1.904
5.10,128.53,1.884
5.10,128.57,1.865
5.10,128.61,1.846
5.10,128.66,1.828
5.10,128.70,1.809
5.11,128.74,1.791
5.11,128.78,1.773
5.11,128.83,1.758
5.11,128.87,1.740
5.11,128.91,1.723
5.11,128.95,1.707
5.12,129.00,1.691
5.12,129.04,1.675
5.12,129.08,1.660
5.12,129.12,1.645
5.12,129.16,1.631
5.13,129.20,1.616
5.13,129.24,1.601
5.13,129.28,1.589
5.13,129.33,1.576
5.13,129.37,1.562
5.13,129.41,1.550
5.14,129.45,1.537
5.14,129.49,1.525
5.14,129.53,1.514
5.14,129.57,1.502
5.14,129.61,1.489
5.14,129.65,1.477
5.15,129.68,1.465
5.15,129.72,1.454
5.15,129.76,1.444
5.15,129.80,1.435
5.15,129.84,1.425
5.15,129.88,1.416
5.15,129.92,1.407
5.16,129.96,1.397
5.16,130.00,1.386
5.16,130.03,1.375
5.16,130.07,1.363
5.16,130.11,1.351
5.16,130.15,1.338
5.17,130.19,1.327
5.17,130.23,1.317
5.17,130.26,1.310
5.17,130.30,1.305
5.17,130.34,1.301
5.18,130.38,1.297
5.18,130.41,1.293
5.18,130.45,1.289
5.18,130.49,1.283
5.18,130.52,1.276
5.18,130.56,1.266
5.19,130.60,1.254
5.19,130.64,1.245
5.19,130.67,1.235
5.19,130.71,1.226
5.19,130.75,1.218
5.19,130.78,1.211
5.20,130.82,1.205
5.20,130.86,1.201
5.20,130.89,1.197
5.20,130.93,1.193
5.20,130.97,1.189
5.20,131.00,1.184
5.20,131.04,1.179
5.21,131.08,1.173
5.21,131.11,1.168
5.21,131.15,1.161
5.21,131.18,1.156
5.21,131.22,1.151
5.21,131.26,1.146
5.22,131.29,1.141
5.22,131.33,1.136
5.22,131.36,1.130
5.22,131.40,1.127
5.22,131.44,1.123
5.23,131.47,1.118
5.23,131.51,1.113
5.23,131.54,1.109
5.23,131.58,1.105
5.23,131.61,1.101
5.23,131.65,1.098
5.24,131.68,1.095
5.24,131.72,1.091
5.24,131.75,1.088
5.24,131.79,1.085
5.24,131.83,1.081
5.24,131.86,1.077
5.25,131.90,1.073
5.25,131.93,1.070
5.25,131.97,1.067
5.25,132.00,1.064
5.25,132.04,1.061
5.25,132.07,1.057
5.25,132.11,1.055
5.26,132.14,1.052
5.26,132.18,1.049
5.26,132.21,1.046
5.26,132.25,1.043
5.26,132.28,1.039
5.26,132.31,1.037
5.27,132.35,1.034
5.27,132.39,1.032
5.27,132.42,1.029
5.27,132.45,1.026
5.27,132.49,1.025
5.28,132.52,1.022
5.28,132.56,1.020
5.28,132.59,1.017
5.28,132.63,1.016
5.28,132.66,1.014
5.28,132.70,1.012
5.29,132.73,1.009
5.29,132.77,1.006
5.29,132.80,1.004
5.29,132.83,1.001
5.29,132.87,1.000
5.29,132.90,0.999
5.30,132.94,0.997
5.30,132.97,0.996
5.30,133.01,0.995
5.30,133.04,0.994
5.30,133.08,0.992
5.30,133.11,0.990
5.30,133.14,0.988
5.31,133.18,0.986
5.31,133.21,0.984
5.31,133.25,0.982
5.31,133.28,0.981
5.31,133.31,0.979
5.31,133.35,0.978
5.32,133.38,0.977
5.32,133.42,0.976
5.32,133.45,0.975
5.32,133.48,0.973
5.32,133.52,0.973
5.33,133.55,0.971
5.33,133.59,0.970
5.33,133.62,0.969
5.33,133.66,0.967
5.33,133.69,0.965
5.33,133.72,0.964
5.34,133.76,0.962
5.34,133.79,0.960
5.34,133.83,0.960
5.34,133.86,0.959
5.34,133.89,0.959
5.34,133.93,0.957
5.35,133.96,0.957
5.35,133.99,0.956
5.35,134.03,0.955
5.35,134.06,0.953
5.35,134.10,0.954
5.35,134.13,0.953
5.35,134.17,0.953
5.36,134.20,0.953
5.36,134.23,0.952
5.36,134.27,0.951
5.36,134.30,0.950
5.36,134.33,0.948
5.36,134.37,0.947
5.37,134.40,0.946
5.37,134.43,0.945
5.37,134.47,0.944
5.37,134.50,0.944
5.37,134.54,0.944
5.38,134.57,0.943
5.38,134.60,0.942
5.38,134.64,0.941
5.38,134.67,0.940
5.38,134.70,0.940
5.38,134.74,0.940
5.39,134.77,0.939
5.39,134.81,0.939
5.39,134.84,0.939
5.39,134.87,0.939
5.39,134.91,0.939
5.39,134.94,0.938
5.40,134.97,0.938
5.40,135.01,0.937
5.40,135.04,0.937
5.40,135.07,0.936
5.40,135.11,0.935
5.40,135.14,0.934
5.40,135.18,0.933
5.41,135.21,0.933
5.41,135.24,0.932
5.41,135.28,0.932
5.41,135.31,0.931
5.41,135.34,0.931
5.41,135.38,0.930
5.42,135.41,0.930
5.42,135.44,0.930
5.42,135.48,0.930
5.42,135.51,0.930
5.42,135.55,0.929
5.43,135.58,0.929
5.43,135.61,0.929
5.43,135.65,0.929
5.43,135.68,0.929
5.43,135.71,0.929
5.43,135.75,0.929
5.44,135.78,0.929
5.44,135.81,0.929
5.44,135.85,0.929
5.44,135.88,0.929
5.44,135.91,0.928
5.44,135.95,0.928
5.45,135.98,0.928
5.45,136.01,0.927
5.45,136.05,0.927
5.45,136.08,0.926
5.45,136.12,0.926
5.45,136.15,0.926
5.45,136.18,0.925
5.46,136.22,0.925
5.46,136.25,0.925
5.46,136.28,0.925
5.46,136.32,0.925
5.46,136.35,0.925
5.46,136.38,0.925
5.47,136.42,0.925
5.47,136.45,0.925
5.47,136.48,0.925
5.47,136.52,0.924
5.47,136.55,0.924
5.48,136.58,0.924
5.48,136.62,0.924
5.48,136.65,0.924
5.48,136.68,0.924
5.48,136.72,0.924
5.48,136.75,0.924
5.49,136.79,0.924
5.49,136.82,0.924
5.49,136.85,0.923
5.49,136.89,0.923
5.49,136.92,0.923
5.49,136.95,0.923
5.50,136.99,0.923
5.50,137.02,0.923
5.50,137.05,0.923
5.50,137.09,0.923
5.50,137.12,0.923
5.50,137.15,0.922
5.50,137.19,0.922
5.51,137.22,0.922
5.51,137.25,0.922
5.51,137.29,0.922
5.51,137.32,0.922
5.51,137.35,0.922
5.51,137.39,0.922
5.52,137.42,0.922
5.52,137.45,0.922
5.52,137.49,0.922
5.52,137.52,0.922
5.52,137.56,0.921
5.53,137.59,0.921
5.53,137.62,0.921
5.53,137.66,0.921
5.53,137.69,0.921
5.53,137.72,0.921
5.53,137.76,0.921
5.54,137.79,0.921
5.54,137.82,0.921
5.54,137.85,0.921
5.54,137.89,0.921
5.54,137.92,0.921
5.54,137.96,0.921
5.55,137.99,0.921
5.55,138.02,0.921
5.55,138.06,0.921
5.55,138.09,0.921
5.55,138.12,0.921
5.55,138.16,0.921
5.55,138.19,0.921
5.56,138.22,0.921
5.56,138.26,0.921
5.56,138.29,0.921
5.56,138.32,0.921
5.56,138.36,0.921
5.56,138.39,0.920
5.57,138.42,0.920
5.57,138.46,0.920
5.57,138.49,0.920
5.57,138.52,0.920
5.57,138.56,0.920
5.58,138.59,0.920
5.58,138.62,0.920
5.58,138.66,0.920
5.58,138.69,0.920
5.58,138.72,0.920
5.58,138.76,0.920
5.59,138.79,0.920
5.59,138.83,0.920
5.59,138.86,0.920
5.59,138.89,0.920
5.59,138.93,0.920
5.59,138.96,0.920
5.60,138.99,0.920
5.60,139.03,0.920
5.60,139.06,0.920
5.60,139.09,0.920
5.60,139.13,0.920
5.60,139.16,0.920
5.60,139.19,0.920
5.61,139.23,0.920
5.61,139.26,0.920
5.61,139.29,0.920
5.61,139.33,0.920
5.61,139.36,0.920
5.61,139.39,0.920
5.62,139.43,0.920
5.62,139.46,0.920
5.62,139.49,0.920
5.62,139.53,0.920
5.62,139.56,0.920
5.63,139.59,0.920
5.63,139.63,0.920
5.63,139.66,0.920
5.63,139.69,0.920
5.63,139.73,0.920
5.63,139.76,0.920
5.64,139.79,0.920
5.64,139.83,0.920
5.64,139.86,0.920
5.64,139.89,0.920
5.64,139.93,0.920
5.64,139.96,0.920
5.65,139.99,0.920
5.65,140.03,0.920
5.65,140.06,0.920
5.65,140.09,0.920
5.65,140.13,0.920
5.65,140.16,0.920
5.65,140.19,0.920
5.66,140.23,0.920
5.66,140.26,0.920
5.66,140.29,0.920
5.66,140.33,0.920
5.66,140.36,0.920
5.66,140.39,0.920
5.67,140.43,0.920
5.67,140.46,0.920
5.67,140.50,0.920
5.67,140.53,0.920
5.67,140.56,0.920
5.68,140.60,0.920
5.68,140.63,0.920
5.68,140.66,0.920
5.68,140.70,0.920
5.68,140.73,0.920
5.68,140.76,0.920
5.69,140.79,0.920
5.69,140.83,0.920
5.69,140.86,0.920
5.69,140.90,0.920
5.69,140.93,0.920
5.69,140.96,0.920
5.70,141.00,0.920
5.70,141.03,0.920
5.70,141.06,0.920
5.70,141.10,0.920
5.70,141.13,0.920
5.70,141.16,0.920
5.70,141.19,0.920
5.71,141.23,0.920
5.71,141.26,0.920
5.71,141.30,0.920
5.71,141.33,0.920
5.71,141.36,0.920
5.71,141.40,0.920
5.72,141.43,0.920
5.72,141.46,0.920
5.72,141.50,0.920
5.72,141.53,0.920
5.72,141.56,0.920
5.73,141.60,0.920
5.73,141.63,0.920
5.73,141.66,0.920
5.73,141.70,0.920
5.73,141.73,0.920
5.73,141.76,0.920
5.74,141.80,0.920
5.74,141.83,0.920
5.74,141.86,0.920
5.74,141.90,0.920
5.74,141.93,0.920
5.74,141.96,0.920
5.75,142.00,0.920
5.75,142.03,0.921
5.75,142.06,0.921
5.75,142.10,0.921
5.75,142.13,0.921
5.75,142.16,0.921
5.75,142.20,0.921
5.76,142.23,0.921
5.76,142.26,0.921
5.76,142.30,0.921
5.76,142.33,0.921
5.76,142.36,0.921
5.76,142.40,0.921
5.77,142.43,0.921
5.77,142.46,0.921
5.77,142.50,0.921
5.77,142.53,0.921
5.77,142.56,0.921
5.78,142.60,0.921
5.78,142.63,0.921
5.78,142.66,0.921
5.78,142.70,0.921
5.78,142.73,0.921
5.78,142.76,0.921
5.79,142.80,0.921
5.79,142.83,0.921
5.79,142.86,0.921
5.79,142.90,0.921
5.79,142.93,0.921
5.79,142.96,0.921
5.80,143.00,0.921
5.80,143.03,0.921
5.80,143.06,0.921
5.80,143.10,0.921
5.80,143.13,0.921
5.80,143.16,0.921
5.80,143.20,0.921
5.81,143.23,0.921
5.81,143.26,0.922
5.81,143.30,0.922
5.81,143.33,0.922
5.81,143.37,0.922
5.81,143.40,0.922
5.82,143.43,0.922
5.82,143.47,0.922
5.82,143.50,0.922
5.82,143.53,0.922
5.82,143.57,0.922
5.83,143.60,0.922
5.83,143.63,0.922
5.83,143.67,0.922
5.83,143.70,0.922
5.83,143.73,0.922
5.83,143.76,0.922
5.84,143.80,0.922
5.84,143.83,0.922
5.84,143.87,0.922
5.84,143.90,0.922
5.84,143.93,0.922
5.84,143.97,0.922
5.85,144.00,0.922
5.85,144.03,0.922
5.85,144.07,0.922
5.85,144.10,0.922
5.85,144.13,0.922
5.85,144.17,0.923
5.85,144.20,0.923
5.86,144.23,0.923
5.86,144.27,0.923
5.86,144.30,0.923
5.86,144.33,0.923
5.86,144.37,0.923
5.86,144.40,0.923
5.87,144.43,0.923
5.87,144.47,0.923
5.87,144.50,0.923
5.87,144.54,0.923
5.87,144.57,0.923
5.88,144.60,0.923
5.88,144.63,0.923
5.88,144.67,0.923
5.88,144.70,0.923
5.88,144.73,0.923
5.88,144.77,0.923
5.89,144.80,0.923
5.89,144.83,0.923
5.89,144.87,0.923
5.89,144.90,0.924
5.89,144.93,0.924
5.89,144.97,0.924
5.90,145.00,0.924
5.90,145.04,0.924
5.90,145.07,0.924
5.90,145.10,0.924
5.90,145.13,0.924
5.90,145.17,0.924
5.90,145.20,0.924
5.91,145.24,0.924
5.91,145.27,0.924
5.91,145.30,0.924
5.91,145.33,0.924
5.91,145.37,0.924
5.91,145.40,0.924
5.92,145.43,0.924
5.92,145.47,0.924
5.92,145.50,0.924
5.92,145.54,0.924
5.92,145.57,0.924
5.93,145.60,0.925
5.93,145.64,0.925
5.93,145.67,0.925
5.93,145.70,0.925
5.93,145.74,0.925
5.93,145.77,0.925
5.94,145.80,0.925
5.94,145.83,0.925
5.94,145.87,0.925
5.94,145.90,0.925
5.94,145.94,0.925
5.94,145.97,
5.95,146.00,
5.95,146.03,
5.95,146.07,
5.95,146.10,
5.95,146.14,
5.95,146.17,
5.95,146.20,
5.96,146.24,
5.96,146.27,
5.96,146.30,
5.96,146.34,
5.96,146.37,
5.96,146.40,
5.97,146.44,
5.97,146.47,
5.97,146.50,
5.97,146.54,
5.97,146.57,
5.98,146.60,
5.98,146.64,
5.98,146.67,
5.98,146.70,
5.98,146.74,
5.98,146.77,
5.99,146.80,
5.99,146.84,
5.99,146.87,
5.99,146.90,
5.99,146.94,
5.99,,
6.00,,
6.00,,
6.00,,
6.00,,

